ts,bvp1,bvp2,resp
0,669,730,399
1,664,729,399
2,657,727,398
3,651,724,399
3,644,722,399
4,638,720,398
5,632,718,398
6,626,715,398
7,621,713,398
8,616,711,398
9,611,709,398
10,606,706,398
11,601,704,398
12,597,702,399
13,593,699,398
14,588,697,398
15,584,696,397
17,579,693,398
18,576,691,397
19,573,689,397
21,570,686,398
22,568,685,397
23,567,684,398
25,566,683,397
26,566,681,397
27,564,679,397
29,564,677,397
30,564,677,397
31,564,674,397
33,564,671,397
34,564,670,396
35,565,667,397
37,566,666,397
38,567,665,397
39,569,663,396
41,571,662,396
43,574,662,397
44,576,660,396
46,578,660,397
47,581,658,396
48,583,657,396
50,585,656,396
51,586,654,396
52,588,652,396
54,590,651,396
55,593,649,396
56,595,648,396
58,597,648,396
59,600,646,396
60,602,646,396
62,605,646,395
63,608,646,396
64,611,645,396
66,614,645,395
67,616,644,395
68,617,643,396
70,619,642,395
71,620,642,395
72,622,642,395
74,623,641,395
75,624,640,395
76,625,641,395
78,626,641,395
79,627,641,396
80,628,641,396
81,630,642,395
83,631,643,395
84,631,643,395
86,632,643,396
88,632,644,395
89,633,645,395
90,632,644,395
92,632,645,395
93,631,646,395
94,630,646,395
96,630,647,394
97,629,647,394
98,629,648,396
100,629,650,394
101,628,651,395
103,628,654,394
104,628,655,394
105,627,657,394
107,626,660,394
108,625,660,394
110,624,662,394
111,622,663,394
112,621,664,394
114,619,666,394
115,617,668,394
117,615,669,394
118,613,671,394
120,612,673,394
121,611,676,394
122,609,679,393
124,608,682,394
125,606,684,393
128,605,687,394
129,603,688,393
130,601,691,393
132,598,693,393
133,595,694,394
135,593,697,394
136,591,698,393
137,588,700,394
139,586,703,393
140,585,706,393
142,583,709,393
143,582,712,393
145,580,716,393
146,579,718,393
147,576,721,393
149,573,722,393
150,570,726,393
152,568,727,393
153,565,729,393
154,563,731,393
156,561,734,393
157,559,736,393
159,556,738,393
160,554,740,393
161,553,744,393
163,552,747,393
164,550,750,392
166,548,752,393
167,546,754,393
168,544,756,392
171,542,758,393
172,539,759,392
174,537,761,392
175,534,762,392
177,530,764,392
178,528,766,393
179,525,768,392
181,524,771,393
182,521,773,393
184,519,775,393
185,516,777,392
186,513,779,392
188,509,782,392
189,506,783,392
191,503,784,392
192,499,785,392
193,495,787,393
195,491,788,392
196,488,790,393
198,484,791,392
199,480,793,393
201,478,795,392
202,475,796,392
203,472,799,392
205,469,801,392
206,465,802,392
208,461,802,392
209,458,803,392
210,453,804,392
212,449,803,392
214,445,802,392
216,441,804,392
217,438,803,392
218,433,803,392
220,430,804,393
221,427,804,392
223,424,805,392
224,422,806,392
226,418,805,392
227,416,805,392
228,413,804,392
230,410,803,392
231,407,803,392
233,405,801,393
234,402,800,392
235,399,800,393
237,397,798,393
238,395,798,393
240,393,796,393
241,392,795,393
242,392,795,393
244,391,794,392
245,390,793,392
247,389,791,393
248,388,788,393
250,387,787,393
251,385,785,393
252,384,781,393
254,383,779,393
256,383,777,393
258,382,774,393
259,382,771,393
260,382,769,393
262,384,768,393
263,384,766,394
265,385,763,393
266,386,762,393
267,386,759,394
269,387,757,394
270,388,753,393
272,389,750,394
273,390,747,394
275,390,744,394
276,391,741,394
277,392,738,394
279,393,734,394
280,395,733,394
282,398,729,395
283,400,727,395
284,401,724,394
286,403,720,395
287,404,717,396
289,407,713,395
290,408,710,395
291,408,706,395
293,410,701,395
294,412,698,395
296,414,694,395
297,416,691,395
299,418,687,395
301,421,684,396
302,423,680,396
304,426,678,396
305,428,674,395
307,431,670,396
308,433,667,396
309,435,664,396
311,436,660,396
312,438,655,396
314,439,651,397
315,441,647,397
316,442,643,397
318,443,638,397
319,445,635,396
321,447,631,397
322,450,628,397
323,453,624,397
325,454,621,396
326,456,618,397
328,458,614,397
329,460,611,397
331,461,607,398
332,462,603,397
333,463,598,398
335,465,595,398
336,466,592,398
338,468,589,398
339,470,586,398
340,472,582,398
343,475,580,398
344,477,577,399
346,479,574,399
347,481,572,399
348,483,568,399
350,485,565,399
351,487,561,399
353,488,558,399
354,489,554,399
356,491,551,399
357,492,548,400
358,494,545,399
360,496,543,399
361,498,540,400
363,501,538,400
364,503,535,400
365,507,534,400
367,507,531,400
368,509,529,400
370,510,526,400
371,511,523,401
372,512,520,400
374,514,517,401
375,515,514,401
377,516,512,401
378,518,510,401
380,519,508,402
381,521,506,401
382,523,505,401
385,524,504,401
386,525,501,402
388,526,499,401
389,527,497,401
390,527,495,401
392,527,493,402
393,528,491,401
395,528,488,402
396,528,487,402
397,528,485,402
399,529,483,402
400,529,482,402
402,529,481,402
403,530,480,403
405,531,479,402
406,531,477,402
407,531,476,403
409,531,475,403
410,529,473,403
412,528,471,403
413,526,469,403
414,525,467,403
416,524,465,404
417,522,463,403
419,520,463,403
420,520,462,403
421,519,461,403
423,518,460,404
424,518,458,404
427,515,458,404
428,514,457,405
430,512,456,404
431,511,456,404
432,508,454,404
434,506,451,404
435,504,451,404
437,502,449,404
438,500,448,404
439,498,448,404
441,497,447,404
442,496,448,404
444,494,448,405
445,493,447,405
446,491,447,405
448,490,446,405
449,487,444,406
451,486,443,405
452,484,442,405
453,481,441,406
455,480,439,405
456,478,439,405
458,478,439,405
459,475,438,405
461,475,439,406
462,475,439,405
463,474,439,406
465,473,439,406
466,473,439,406
468,472,438,406
470,472,438,406
471,470,437,406
473,468,436,406
474,467,435,406
476,466,435,406
477,466,436,406
478,465,434,407
480,465,434,406
481,466,434,407
483,465,434,407
484,465,434,407
486,465,435,407
487,464,434,407
488,464,434,407
490,463,433,408
491,462,432,407
493,461,432,407
494,460,431,407
495,461,429,407
497,459,430,407
498,459,429,407
500,457,430,407
501,458,430,407
502,458,429,408
504,459,430,407
505,458,429,407
507,457,429,408
508,457,428,408
510,455,427,408
512,454,426,408
513,452,424,408
515,451,422,409
516,449,422,408
518,448,421,408
519,447,419,408
520,445,418,408
522,444,417,408
523,442,417,408
525,441,415,408
526,439,414,408
527,437,413,408
529,435,411,408
530,432,409,408
532,429,406,408
533,426,404,408
535,423,402,409
536,420,400,408
537,417,396,409
539,415,395,408
540,412,393,409
542,410,391,408
543,408,389,409
544,405,386,408
546,402,383,408
547,399,380,408
549,396,376,408
550,393,374,408
551,388,368,408
553,385,364,408
555,382,360,409
557,379,356,408
558,375,351,409
560,373,347,408
561,370,343,408
562,369,339,408
564,366,335,408
565,363,330,408
567,362,324,408
568,360,320,408
569,356,314,408
571,354,307,408
572,350,300,408
574,348,294,408
575,345,287,408
576,343,281,408
578,341,274,408
579,339,268,408
581,337,262,407
582,336,255,408
583,336,248,408
585,334,241,405
586,333,234,408
588,331,226,407
589,329,220,407
591,328,209,407
592,325,201,407
593,324,193,407
595,324,185,407
596,323,177,407
599,322,170,406
600,322,162,408
601,323,155,406
603,324,149,406
604,324,142,406
606,326,135,406
607,327,129,406
608,327,123,406
610,329,117,406
611,330,110,406
613,330,103,406
614,332,97,406
615,333,92,406
617,334,87,406
618,336,82,405
619,337,77,405
621,339,74,405
622,343,70,406
623,344,66,405
625,346,63,406
626,349,59,405
627,350,56,405
629,352,53,405
630,354,51,405
631,355,47,405
633,356,45,404
634,357,43,404
635,359,42,404
637,361,39,404
638,363,39,404
640,366,39,404
642,368,39,404
643,370,39,404
644,372,39,404
646,375,40,404
647,376,40,403
648,378,39,403
650,379,41,403
651,380,42,403
652,381,42,403
654,382,42,403
655,382,44,403
656,384,45,403
658,385,47,403
659,386,49,400
660,387,52,403
662,388,55,403
663,390,59,403
664,391,61,402
666,392,64,402
667,392,66,402
668,393,69,402
670,393,72,401
671,394,74,402
672,393,77,402
674,393,81,402
675,393,84,402
676,392,87,402
678,393,92,402
679,393,95,402
680,393,100,402
683,394,106,402
684,395,110,401
685,394,114,401
687,395,119,401
688,393,124,401
690,393,128,402
691,391,132,401
692,390,136,401
694,388,142,401
695,387,146,401
697,384,151,401
698,383,155,401
700,383,161,402
701,382,167,400
702,381,172,401
704,380,178,402
705,378,184,400
707,377,190,400
708,376,195,400
709,374,201,400
711,371,206,400
712,370,211,400
714,367,216,400
715,365,222,400
716,362,227,400
718,361,233,400
719,359,239,399
721,359,246,400
722,357,253,399
724,355,259,399
726,354,264,399
727,352,270,399
729,350,275,399
730,348,281,399
732,346,285,399
733,343,292,399
734,342,296,399
736,340,302,399
737,338,308,399
739,337,314,399
740,336,320,399
741,336,327,398
743,336,334,399
744,337,341,398
746,336,346,398
747,335,353,398
749,336,359,398
750,335,364,398
751,334,370,398
753,333,375,398
754,334,381,398
756,334,388,398
757,335,393,398
758,335,399,398
760,338,406,397
761,340,413,397
763,342,420,397
764,345,427,397
765,347,433,397
768,350,439,397
769,352,446,397
771,354,452,398
772,357,457,397
774,360,464,397
775,362,470,397
776,366,476,397
778,369,482,397
779,374,489,397
781,378,496,397
782,383,504,397
783,388,511,396
785,393,518,395
786,397,525,396
788,402,532,396
789,407,538,396
790,412,546,396
792,416,552,396
793,421,558,396
795,427,565,396
796,432,573,396
798,437,581,396
799,443,586,396
800,449,594,396
802,456,602,395
803,462,611,396
805,469,618,396
806,475,625,395
807,481,632,396
809,487,640,395
811,492,647,396
813,497,653,395
814,503,660,395
815,508,667,395
817,514,674,395
818,519,680,395
820,525,688,395
821,532,695,395
822,538,703,394
824,544,710,395
825,550,717,395
827,556,724,395
828,562,732,395
830,567,737,395
831,572,743,394
832,577,748,395
834,581,754,394
835,587,759,394
837,592,766,394
838,597,772,394
839,601,778,394
841,608,784,394
842,613,790,394
844,618,797,394
845,623,803,394
846,629,808,394
848,634,813,394
849,637,817,394
851,640,821,394
852,644,825,394
855,648,829,393
856,652,833,394
857,655,837,394
859,660,841,393
860,665,845,394
862,668,849,394
863,672,854,395
864,675,858,393
866,679,861,392
867,681,864,394
869,685,867,393
870,688,868,393
871,691,872,393
873,691,873,394
874,693,875,394
876,696,879,393
877,698,880,393
879,699,882,393
880,702,883,393
881,704,885,393
883,708,889,393
884,709,890,393
886,711,891,393
887,713,892,393
888,714,893,393
890,715,895,393
891,716,895,393
893,715,894,393
894,718,895,393
896,717,895,392
898,717,895,393
899,718,895,393
901,718,895,393
902,718,897,393
904,720,897,392
905,720,897,392
906,720,897,393
908,719,897,393
909,718,896,392
911,717,895,392
912,716,895,392
913,713,895,393
915,712,893,392
916,711,892,393
918,709,891,392
919,708,891,392
920,707,890,392
922,705,889,393
923,704,888,392
925,702,888,392
926,700,886,392
928,699,885,393
929,698,883,392
930,694,881,392
932,691,880,392
933,688,876,392
935,687,875,392
936,683,873,393
937,682,872,392
940,680,869,393
941,678,869,392
943,677,868,392
944,675,867,392
945,674,866,392
947,672,864,392
948,669,864,392
950,667,860,392
951,664,858,392
952,661,857,392
954,659,853,392
955,657,852,392
957,656,851,392
958,654,849,392
960,653,848,392
961,652,847,392
962,651,846,392
964,651,846,392
965,649,844,392
967,647,841,392
968,646,840,392
969,645,838,392
971,643,836,392
972,642,833,392
974,641,832,392
975,641,831,392
976,639,829,392
978,639,827,392
979,638,825,392
982,638,824,392
983,639,824,392
985,639,822,392
986,638,820,392
987,639,819,392
989,638,816,392
990,637,815,392
992,636,813,392
993,635,810,392
994,634,809,392
996,633,806,392
997,633,803,392
999,634,802,393
1000,633,800,392
1002,633,798,392
1003,633,796,392
1005,633,794,393
1006,633,792,392
1008,633,790,393
1009,632,788,394
1011,631,785,392
1012,630,781,393
1014,629,778,393
1015,628,775,393
1017,627,772,393
1018,627,769,393
1019,625,767,393
1021,625,765,393
1022,624,762,393
1025,624,760,393
1026,623,756,393
1028,622,755,393
1029,621,751,393
1031,619,748,393
1032,617,744,393
1034,615,740,393
1035,612,736,395
1037,611,733,394
1038,610,730,394
1040,609,728,394
1041,608,725,394
1043,607,723,394
1044,606,720,394
1046,605,718,394
1047,604,714,394
1049,602,711,394
1050,601,707,394
1052,598,704,394
1053,596,699,394
1055,594,696,395
1056,593,692,395
1058,591,690,395
1059,590,686,395
1061,590,684,395
1062,590,682,395
1064,589,680,396
1065,588,676,395
1068,587,673,395
1069,586,670,395
1071,584,667,396
1072,583,664,396
1074,581,661,396
1075,581,658,396
1077,580,656,396
1078,579,651,396
1080,579,650,397
1081,579,648,396
1083,580,646,396
1084,580,643,396
1086,580,642,397
1087,580,640,397
1089,580,637,397
1090,580,635,397
1092,580,632,397
1093,580,628,397
1095,580,626,397
1096,581,623,397
1098,582,622,398
1099,583,620,398
1101,584,619,398
1102,585,617,398
1104,587,615,398
1105,589,613,398
1107,590,613,398
1108,591,610,398
1111,591,608,399
1112,592,606,399
1114,593,604,399
1115,594,601,399
1117,596,599,399
1118,597,598,399
1120,598,598,399
1121,599,596,400
1123,602,595,400
1124,604,594,400
1126,605,593,400
1127,605,591,400
1129,607,590,400
1130,606,588,400
1132,607,586,400
1133,606,584,401
1135,606,582,401
1136,607,580,401
1138,608,579,401
1139,607,578,401
1141,608,577,401
1142,609,576,402
1144,609,576,401
1145,609,575,402
1147,609,574,402
1148,609,573,401
1149,608,570,402
1152,607,568,402
1153,605,566,402
1155,604,565,402
1156,603,564,402
1158,601,562,403
1159,601,561,402
1161,600,560,403
1162,599,560,403
1164,598,558,403
1165,598,557,403
1167,595,556,403
1168,593,554,403
1170,591,551,403
1171,588,549,403
1173,585,547,403
1174,583,546,404
1176,580,544,403
1177,577,542,403
1179,575,541,404
1180,573,540,404
1182,572,539,404
1183,569,538,404
1185,567,536,404
1186,564,536,404
1188,561,531,405
1189,558,531,404
1191,555,529,405
1192,550,527,405
1195,547,525,405
1196,544,524,405
1198,541,522,405
1199,538,521,405
1201,535,519,405
1202,532,519,405
1204,530,517,405
1205,527,515,405
1207,523,514,405
1208,520,513,406
1210,518,512,406
1211,513,511,405
1213,509,507,406
1214,505,506,406
1216,502,504,406
1217,498,504,406
1219,495,500,407
1220,491,499,406
1222,490,498,406
1223,487,497,407
1225,484,497,407
1226,482,496,406
1228,479,494,407
1229,476,494,407
1231,473,491,407
1232,470,489,407
1234,466,487,407
1235,464,486,407
1238,460,483,407
1239,458,482,408
1241,457,481,407
1242,455,482,408
1244,453,480,408
1245,452,480,408
1247,449,479,408
1248,447,478,408
1250,446,476,408
1251,443,474,408
1253,441,473,409
1254,439,472,408
1256,437,470,408
1257,435,469,408
1259,434,468,408
1260,433,468,409
1262,432,467,409
1263,432,467,409
1265,431,466,409
1266,430,465,409
1268,428,464,409
1269,428,462,409
1271,426,461,409
1272,424,460,409
1274,422,458,409
1275,421,457,410
1277,420,456,409
1278,420,455,410
1280,419,454,410
1282,419,454,409
1283,419,453,410
1285,418,453,411
1286,417,452,410
1288,417,451,410
1289,416,450,410
1291,415,449,410
1292,413,446,410
1294,411,446,410
1295,411,445,410
1297,409,444,411
1298,408,443,410
1300,408,442,411
1301,408,442,411
1303,407,442,411
1304,406,441,411
1306,405,440,411
1307,405,439,411
1309,404,437,411
1310,402,435,410
1312,401,434,411
1313,400,433,411
1315,398,432,411
1316,396,430,411
1318,395,429,411
1319,395,428,411
1321,394,429,411
1323,394,426,411
1325,393,426,411
1326,394,425,411
1328,392,425,411
1329,391,421,412
1331,389,420,411
1332,388,418,412
1334,386,417,411
1335,385,413,411
1337,384,412,412
1338,383,410,411
1340,382,409,411
1341,382,407,412
1343,382,407,411
1344,381,405,411
1346,380,404,412
1347,379,401,412
1349,378,399,411
1350,376,396,411
1352,374,394,411
1353,372,391,411
1355,371,388,411
1356,371,385,411
1358,369,384,411
1359,368,379,411
1361,367,378,411
1362,366,376,411
1364,366,374,411
1366,365,370,411
1368,363,366,411
1369,362,364,411
1371,359,360,411
1372,357,354,411
1374,355,350,411
1375,354,346,410
1377,352,343,411
1378,351,338,410
1380,351,335,410
1381,350,332,411
1383,350,329,411
1384,349,324,410
1386,349,320,410
1387,348,317,410
1389,347,313,410
1390,346,308,410
1392,343,303,410
1393,343,298,410
1395,342,294,410
1396,341,289,410
1398,340,286,409
1399,340,281,409
1401,340,278,409
1402,340,274,409
1404,340,271,410
1405,341,268,409
1408,340,264,409
1409,339,259,409
1410,339,255,409
1412,338,251,407
1413,338,247,409
1415,337,244,409
1416,338,240,408
1418,337,237,408
1419,339,235,409
1421,339,232,408
1422,341,230,408
1424,343,228,408
1425,343,228,408
1427,344,223,408
1428,344,222,408
1430,346,219,408
1431,346,218,409
1433,346,213,408
1434,347,213,407
1436,349,211,408
1437,350,210,407
1439,352,208,407
1440,353,208,407
1442,356,208,407
1443,358,208,407
1445,360,207,407
1446,362,207,407
1448,364,207,407
1449,365,207,407
1452,366,206,406
1453,368,206,406
1455,369,205,406
1456,371,206,406
1458,372,205,406
1459,375,206,406
1461,377,208,406
1462,379,210,406
1464,382,210,405
1465,384,211,405
1467,386,212,405
1468,387,213,406
1470,389,213,405
1471,389,213,405
1473,391,214,405
1474,392,215,405
1476,393,215,405
1477,394,216,405
1479,396,219,405
1480,397,221,405
1482,399,222,404
1483,401,224,404
1485,402,226,404
1486,403,228,404
1488,404,229,404
1489,405,231,404
1491,405,233,404
1492,405,234,404
1495,406,236,404
1496,406,238,403
1498,406,240,403
1499,407,243,403
1501,408,245,403
1502,409,248,403
1504,410,251,403
1505,411,254,403
1507,410,255,403
1508,410,257,402
1510,410,259,403
1511,409,261,403
1513,408,262,403
1514,408,265,402
1516,408,267,402
1517,407,269,402
1519,406,271,402
1520,406,275,402
1522,406,278,402
1523,407,281,402
1525,406,283,402
1526,405,287,402
1528,406,290,402
1529,404,293,401
1531,402,294,402
1532,401,296,401
1534,400,298,401
1536,398,301,401
1538,397,303,401
1539,396,306,401
1540,396,309,402
1542,395,313,400
1543,394,314,401
1545,394,318,401
1546,394,321,401
1548,393,324,401
1549,391,325,401
1551,390,328,400
1552,389,330,401
1554,388,332,400
1555,386,334,400
1557,385,337,400
1558,386,340,400
1560,384,344,400
1561,385,345,400
1563,386,349,400
1564,386,351,400
1566,385,354,400
1567,384,356,399
1569,383,358,400
1570,383,360,400
1572,382,362,399
1573,381,363,400
1575,381,365,400
1576,380,367,399
1579,380,369,399
1580,381,371,399
1582,381,373,399
1583,382,376,399
1585,383,378,399
1586,383,380,399
1588,383,382,399
1589,384,383,399
1591,383,384,399
1592,382,384,399
1594,382,385,398
1595,383,387,398
1597,383,389,398
1598,383,390,398
1600,384,390,398
1601,385,392,398
1603,386,395,398
1604,387,396,398
1606,388,397,398
1607,388,398,398
1609,388,399,398
1610,388,398,398
1612,388,398,398
1613,387,398,398
1615,387,400,397
1616,387,399,398
1618,387,399,398
1619,388,400,397
1622,389,402,397
1623,390,403,397
1625,391,404,397
1626,391,405,397
1628,392,405,397
1629,392,406,397
1631,392,406,397
1632,393,407,397
1634,391,406,397
1635,391,407,397
1637,392,408,397
1638,393,409,396
1640,393,412,397
1641,393,411,397
1643,394,413,397
1644,396,414,396
1646,396,416,397
1647,396,416,397
1649,395,417,397
1650,396,418,397
1652,395,419,396
1653,395,418,397
1655,395,420,396
1656,395,421,396
1658,395,423,396
1659,396,424,396
1661,397,427,396
1662,399,429,396
1665,400,432,396
1666,400,433,396
1668,402,435,396
1669,403,437,396
1670,404,439,396
1672,404,441,396
1673,404,443,396
1675,406,446,395
1676,407,449,395
1678,408,451,395
1679,410,454,395
1681,413,458,395
1682,416,463,396
1684,419,466,396
1685,421,471,395
1687,423,475,395
1688,426,480,396
1690,428,483,396
1691,430,487,395
1693,433,491,395
1694,435,496,395
1696,439,500,395
1697,442,506,395
1699,446,512,395
1700,450,518,395
1702,455,524,395
1703,460,531,395
1705,465,537,395
1707,469,545,395
1709,474,550,395
1710,478,556,395
1712,483,562,395
1713,487,568,395
1715,492,574,394
1716,497,581,394
1718,502,588,395
1719,508,595,394
1721,514,602,394
1722,520,611,394
1724,527,618,394
1725,532,626,394
1727,538,634,394
1728,544,641,394
1730,551,648,394
1731,556,654,394
1733,560,660,394
1734,566,668,394
1736,573,675,394
1737,577,682,394
1739,584,690,394
1740,591,698,394
1742,598,706,394
1743,604,714,394
1745,610,720,394
1746,616,727,394
1748,621,734,394
1750,627,741,394
1752,631,745,394
1753,636,751,394
1755,641,757,394
1756,646,764,394
1758,652,769,394
1759,657,776,393
1761,662,782,394
1762,667,789,393
1764,672,794,395
1765,676,800,394
1767,681,805,393
1768,684,809,393
1770,687,814,394
1771,690,819,394
1773,692,822,393
1774,695,826,394
1776,698,830,394
1777,700,834,393
1779,703,838,393
1780,706,841,394
1782,709,845,394
1783,711,849,394
1785,714,853,393
1786,716,856,393
1788,719,858,393
1789,720,860,394
1792,720,862,393
1793,721,864,394
1795,722,864,393
1796,724,866,394
1798,725,868,393
1799,726,870,394
1801,727,870,393
1802,730,873,393
1803,732,875,393
1805,732,876,393
1806,733,875,394
1808,734,877,394
1809,735,877,394
1811,734,877,394
1812,734,875,394
1814,734,875,394
1815,733,874,394
1817,734,873,394
1818,734,871,394
1820,734,871,394
1821,734,871,394
1823,735,871,394
1824,735,868,394
1826,734,868,394
1827,734,866,394
1829,734,864,394
1830,733,863,394
1832,732,860,394
1833,731,857,394
1836,730,855,394
1837,729,852,394
1839,729,850,394
1840,729,848,394
1842,728,847,395
1843,728,845,394
1845,727,842,395
1846,726,839,394
1848,725,838,395
1849,724,832,396
1851,723,830,395
1852,722,826,396
1854,720,822,395
1855,719,819,395
1857,718,816,395
1858,717,813,396
1860,716,811,395
1861,716,807,395
1863,716,806,396
1864,716,802,396
1866,716,800,396
1867,714,796,396
1869,714,793,396
1870,712,789,396
1872,711,785,397
1873,709,781,397
1875,708,777,397
1876,708,774,397
1879,707,771,397
1880,705,767,397
1882,705,764,397
1883,705,761,397
1885,704,758,397
1886,704,754,397
1888,702,751,397
1889,701,748,397
1891,700,744,398
1892,698,740,398
1894,696,736,397
1895,694,732,398
1897,692,729,398
1898,691,724,398
1900,689,721,398
1901,688,719,398
1903,687,716,398
1904,686,712,399
1906,684,709,398
1907,682,705,399
1909,680,702,399
1910,677,697,399
1912,675,693,399
1913,672,690,399
1915,669,686,399
1916,666,682,399
1918,664,679,399
1920,662,675,400
1922,660,673,400
1923,658,670,400
1925,657,667,400
1926,654,664,400
1928,651,661,400
1929,649,656,400
1931,646,654,401
1932,642,650,400
1933,640,647,400
1935,637,643,400
1936,634,640,400
1938,632,637,401
1939,630,634,401
1941,628,631,401
1942,627,630,402
1944,625,627,401
1945,623,624,402
1947,621,622,401
1948,618,619,402
1950,616,616,402
1951,613,614,401
1953,611,609,402
1954,608,607,402
1956,607,604,402
1957,605,603,402
1959,603,599,403
1960,602,598,403
1963,602,596,402
1964,600,595,402
1966,599,592,402
1967,597,590,403
1969,596,588,403
1970,594,587,403
1972,592,582,403
1973,590,580,403
1975,589,578,403
1976,587,577,404
1978,586,574,404
1979,585,572,404
1981,585,572,404
1982,584,572,404
1984,583,569,404
1985,582,568,404
1987,582,566,404
1988,581,566,404
1990,580,563,404
1991,578,561,404
1993,577,560,405
1994,575,559,405
1996,575,557,405
1997,574,556,405
1999,573,555,405
2000,573,555,405
2002,573,554,406
2003,572,554,406
2006,572,554,406
2007,571,553,406
2009,570,551,406
2010,569,551,406
2012,568,549,406
2013,566,548,407
2015,565,546,406
2016,563,545,406
2018,562,545,407
2019,561,544,407
2021,560,544,407
2022,560,545,407
2024,560,544,407
2025,559,545,408
2027,559,544,407
2028,558,544,408
2030,557,543,407
2031,555,542,408
2033,553,539,407
2034,552,541,407
2036,551,540,408
2037,550,540,408
2039,549,539,408
2040,549,539,408
2042,550,541,408
2043,549,541,409
2045,548,541,408
2046,546,540,409
2049,546,540,409
2050,543,539,409
2052,541,538,408
2053,540,538,409
2055,538,537,409
2056,537,538,409
2058,535,536,409
2059,534,537,409
2061,533,537,410
2062,533,539,410
2063,531,536,409
2065,530,537,410
2066,530,537,410
2068,528,537,410
2069,527,536,410
2071,525,535,410
2072,523,535,410
2074,521,535,410
2075,520,533,411
2077,518,533,410
2078,517,533,411
2080,516,533,411
2081,516,533,411
2083,515,533,411
2084,514,532,411
2086,512,533,411
2087,510,530,411
2089,509,531,411
2091,508,530,411
2093,505,529,411
2094,503,527,412
2096,501,527,412
2097,500,526,412
2099,498,526,412
2100,496,525,412
2102,496,525,412
2103,496,525,412
2105,493,525,412
2106,492,524,413
2108,491,523,412
2109,490,522,412
2111,487,521,413
2112,485,519,413
2114,483,517,413
2115,480,517,413
2117,479,515,413
2118,477,514,414
2120,475,513,413
2121,475,513,413
2123,473,513,414
2124,472,511,413
2126,470,510,413
2127,469,509,413
2129,467,509,414
2130,464,506,414
2132,462,504,414
2134,459,503,414
2136,458,502,414
2137,456,500,414
2139,454,500,414
2140,452,499,414
2142,451,499,414
2143,451,498,414
2145,449,497,414
2146,448,496,414
2148,447,495,414
2149,445,493,415
2151,443,492,414
2152,441,489,415
2154,439,487,415
2155,437,486,415
2157,436,485,415
2158,435,484,415
2160,433,484,415
2161,433,483,415
2163,433,483,416
2164,432,481,415
2166,431,481,415
2167,429,479,416
2169,428,478,416
2170,427,476,415
2172,426,475,415
2173,424,473,416
2176,422,471,415
2177,422,470,416
2179,420,469,416
2180,418,466,416
2182,417,466,416
2183,418,466,416
2185,417,465,416
2186,415,463,416
2188,414,461,416
2189,412,460,416
2191,410,458,416
2192,408,455,416
2193,406,454,416
2195,405,452,416
2196,403,451,416
2198,402,448,416
2199,401,447,416
2201,400,446,416
2202,399,445,417
2204,398,443,417
2205,396,440,416
2207,395,438,417
2208,393,436,417
2210,391,433,416
2211,390,430,416
2213,388,428,416
2214,386,425,416
2216,384,422,416
2217,383,419,416
2220,383,417,416
2221,382,416,416
2223,382,413,416
2224,381,410,416
2226,381,408,416
2227,379,405,416
2229,378,401,416
2230,377,398,416
2232,375,394,416
2233,374,390,416
2235,373,386,416
2236,372,382,416
2238,371,379,416
2239,371,375,416
2241,371,371,416
2242,372,368,416
2244,371,364,415
2245,371,359,415
2247,370,353,416
2248,370,349,416
2250,369,344,415
2251,368,339,415
2253,367,333,415
2254,367,327,415
2256,367,322,415
2257,366,315,415
2259,366,310,415
2260,367,306,414
2263,370,301,415
2264,369,297,414
2266,369,289,415
2267,370,285,414
2269,372,279,414
2270,371,275,414
2272,371,266,414
2273,371,260,413
2275,372,255,414
2276,373,249,413
2278,373,242,414
2279,375,238,413
2281,377,233,414
2282,378,230,414
2284,379,223,413
2285,380,219,413
2287,382,214,413
2288,382,209,413
2290,383,203,413
2291,383,198,413
2293,384,194,413
2294,385,190,414
2296,386,185,412
2297,388,181,413
2299,390,178,412
2300,391,176,412
2302,395,173,412
2304,397,171,412
2306,399,168,411
2307,401,167,412
2309,403,163,411
2310,404,161,412
2312,406,159,411
2313,407,156,411
2315,408,154,410
2316,409,153,410
2318,411,152,411
2319,412,152,411
2321,414,150,410
2322,417,150,411
2323,419,151,410
2325,419,151,411
2326,420,150,410
2328,422,149,410
2329,423,150,410
2331,423,150,411
2332,423,149,410
2334,424,150,409
2335,425,152,409
2337,425,153,410
2338,426,155,409
2340,427,157,409
2341,429,160,409
2343,430,162,410
2344,429,163,409
2347,430,166,409
2348,430,168,409
2350,429,171,408
2351,428,172,409
2353,428,174,408
2354,428,176,408
2356,427,180,408
2357,425,181,408
2359,425,185,408
2360,425,189,408
2362,425,193,408
2363,425,196,408
2365,424,201,408
2366,424,205,407
2368,423,207,407
2369,421,210,407
2371,420,214,407
2372,418,218,407
2374,417,222,407
2375,415,224,407
2377,414,229,406
2378,413,233,406
2380,411,239,406
2381,410,242,406
2383,409,247,406
2384,409,251,407
2386,407,256,406
2387,405,260,406
2390,404,264,405
2391,402,267,406
2393,400,272,405
2394,398,275,405
2396,397,279,405
2397,396,284,405
2399,394,288,405
2400,392,292,405
2402,392,297,405
2403,392,302,405
2405,391,308,405
2406,390,310,404
2408,388,314,405
2409,387,319,404
2411,385,321,404
2412,383,325,404
2414,382,327,405
2415,380,331,404
2417,379,335,404
2418,378,338,404
2420,378,342,404
2421,377,346,403
2423,377,351,404
2424,376,353,403
2426,376,357,404
2427,376,360,403
2429,374,363,404
2430,373,365,403
2433,372,367,403
2434,371,371,403
2436,370,373,403
2437,370,375,403
2439,369,378,403
2440,369,381,403
2442,370,385,402
2443,371,388,403
2445,371,391,403
2446,371,393,403
2448,371,396,402
2449,370,397,402
2451,370,399,402
2452,369,400,402
2453,369,402,402
2455,369,402,402
2456,368,405,402
2458,369,407,402
2459,369,409,402
2461,370,411,401
2462,371,414,402
2464,372,415,401
2465,372,416,401
2467,373,417,401
2468,373,419,401
2470,374,420,401
2471,374,421,401
2473,374,420,401
2475,374,422,401
2477,375,422,401
2478,375,424,401
2480,376,424,401
2481,378,425,400
2483,379,427,401
2484,381,429,400
2486,382,428,400
2487,383,429,400
2489,384,429,400
2490,385,430,400
2492,384,428,401
2493,385,428,400
2495,387,428,400
2496,387,428,400
2498,388,428,400
2499,389,429,400
2501,391,429,400
2502,393,430,400
2504,395,430,400
2505,396,430,399
2507,397,430,400
2508,398,430,399
2510,398,428,399
2511,399,428,399
2513,401,427,399
2514,400,427,399
2516,401,426,399
2518,402,425,399
2520,404,425,399
2521,405,427,399
2523,407,426,399
2524,409,426,399
2526,410,426,399
2527,411,426,399
2529,411,425,399
2530,413,424,398
2532,413,423,399
2533,413,423,398
2535,414,421,398
2536,415,421,398
2538,416,421,398
2539,417,421,398
2541,419,421,398
2542,420,421,398
2544,423,422,398
2545,424,423,398
2547,425,422,398
2548,425,422,398
2550,426,421,398
2551,426,420,398
2553,427,420,398
2554,428,420,397
2556,430,420,397
2557,431,421,397
2560,432,419,397
2561,434,421,397
2563,437,423,398
2564,439,424,397
2566,440,423,397
2567,441,424,397
2569,443,425,397
2570,445,426,397
2572,445,426,397
2573,447,427,397
2575,448,429,397
2576,451,430,397
2578,452,432,397
2579,455,434,396
2581,458,437,397
2582,461,439,396
2584,463,443,397
2585,467,446,397
2586,469,449,397
2588,472,453,396
2589,474,454,398
2591,476,457,396
2592,478,459,396
2594,482,464,396
2595,484,466,396
2597,487,471,397
2598,490,475,396
2600,494,480,396
2601,499,486,396
2604,503,492,396
2605,507,497,396
2607,511,503,396
2608,514,508,396
2610,518,514,396
2611,522,519,396
2613,526,525,396
2614,530,530,396
2616,534,537,395
2617,539,543,395
2619,544,550,396
2620,549,557,395
2622,555,566,395
2623,560,574,395
2625,564,581,396
2626,570,587,395
2628,575,595,395
2629,579,602,395
2631,583,609,395
2632,587,615,395
2634,592,623,395
2635,597,631,395
2637,601,639,395
2638,606,645,395
2640,612,654,395
2641,617,663,395
2643,622,671,395
2644,627,678,395
2647,631,686,395
2648,636,693,395
2650,640,700,395
2651,644,706,395
2653,648,713,395
2654,652,720,395
2656,656,727,395
2657,660,733,395
2659,665,739,395
2660,669,746,395
2662,674,754,395
2663,678,759,395
2665,682,765,395
2666,687,771,394
2668,690,777,395
2669,694,781,394
2671,697,787,394
2672,701,791,394
2674,703,796,394
2675,706,800,394
2677,710,804,394
2678,713,809,394
2680,716,812,395
2681,719,816,394
2683,723,822,394
2684,727,825,394
2686,729,829,394
2688,731,832,394
2690,734,835,394
2691,736,837,394
2693,736,841,394
2694,738,841,394
2696,740,844,394
2697,741,845,394
2699,744,847,395
2700,746,848,395
2702,748,851,394
2703,751,854,395
2705,753,857,395
2706,754,856,394
2708,757,857,394
2709,759,859,394
2711,760,860,394
2712,760,858,395
2714,762,859,394
2715,763,859,394
2716,764,859,394
2718,765,858,395
2719,766,859,394
2721,769,860,395
2722,771,860,394
2724,772,860,394
2725,773,859,394
2727,774,859,395
2728,775,859,394
2731,776,857,395
2732,775,855,394
2734,776,853,394
2735,776,853,395
2737,777,850,395
2738,777,849,395
2740,779,849,394
2741,780,848,395
2743,780,846,394
2744,782,846,395
2746,782,844,395
2747,782,842,395
2749,782,839,394
2750,782,837,395
2752,781,834,395
2753,780,832,396
2755,780,829,395
2756,780,826,395
2758,779,824,395
2759,778,822,395
2761,779,821,395
2762,779,819,395
2764,778,816,396
2765,777,813,396
2767,775,810,396
2768,773,807,396
2770,772,804,397
2771,770,800,396
2774,767,796,396
2775,765,794,397
2777,763,791,396
2778,761,788,396
2780,759,785,396
2781,757,782,397
2783,756,780,397
2784,754,777,397
2786,751,773,397
2787,749,771,397
2789,745,767,397
2790,742,764,397
2792,738,759,397
2793,734,756,397
2795,731,752,397
2796,727,750,398
2798,723,744,397
2799,719,741,398
2801,717,739,398
2802,713,738,398
2804,709,732,399
2805,705,729,398
2807,702,726,398
2808,697,723,398
2810,692,718,398
2811,688,714,398
2813,683,710,398
2814,677,707,398
2817,672,702,399
2818,668,698,399
2820,663,695,399
2821,659,692,400
2823,656,689,399
2824,651,686,399
2826,647,682,400
2827,641,679,400
2829,637,675,400
2830,631,671,400
2832,626,666,400
2833,620,662,400
2835,615,658,400
2836,610,654,400
2838,607,651,400
2839,602,648,400
2841,598,644,400
2842,595,641,400
2844,591,639,401
2845,588,636,401
2846,584,632,401
2848,579,629,401
2849,575,625,401
2851,571,622,402
2852,566,617,402
2854,563,614,402
2855,560,611,402
2857,556,608,402
2859,553,604,402
2861,551,602,402
2862,549,601,402
2864,547,598,403
2865,543,594,402
2867,541,592,403
2868,538,590,403
2870,536,587,403
2871,533,583,403
2873,530,580,403
2874,528,578,403
2876,527,576,403
2877,525,572,404
2879,524,571,403
2880,523,570,404
2882,523,569,404
2883,523,567,404
2885,522,565,404
2886,522,564,405
2888,521,562,404
2889,520,560,405
2891,520,558,405
2892,519,556,405
2894,519,553,405
2895,519,551,405
2897,518,550,405
2898,518,549,405
2900,519,550,405
2902,521,547,405
2904,522,548,406
2905,523,547,406
2907,524,547,406
2908,525,544,407
2910,525,544,406
2911,526,542,406
2913,526,542,407
2914,526,539,407
2916,527,539,406
2917,529,539,406
2919,530,540,408
2920,531,539,407
2922,533,539,407
2923,535,539,407
2925,536,539,409
2926,537,538,408
2928,538,538,408
2929,539,538,408
2931,539,537,408
2932,539,535,408
2934,539,535,408
2935,540,534,408
2937,540,535,409
2938,541,534,408
2940,543,535,408
2941,545,536,408
2944,546,538,408
2945,546,536,409
2947,547,538,408
2948,548,536,409
2950,548,536,409
2951,547,534,409
2953,547,534,409
2954,547,533,410
2956,547,534,410
2957,546,532,409
2959,547,532,410
2960,547,533,410
2962,548,533,410
2963,548,533,410
2965,549,533,410
2966,549,533,410
2968,548,533,410
2969,547,531,410
2971,546,530,411
2972,546,529,411
2974,545,529,411
2975,544,528,411
2976,544,528,411
2978,544,528,411
2979,543,529,411
2981,544,527,411
2982,545,528,411
2984,544,528,412
2985,544,527,412
2988,543,527,412
2989,543,526,412
2991,541,525,412
2992,540,525,412
2994,539,523,412
2995,538,523,412
2997,538,521,412
2998,536,520,412
3000,536,519,413
3001,536,520,413
3003,536,520,412
3004,535,519,413
3006,534,518,413
3007,533,517,413
3009,533,516,413
3010,531,516,413
3012,529,513,413
3013,527,512,414
3015,526,511,414
3016,524,510,414
3018,523,508,413
3019,522,508,413
3021,521,508,414
3022,521,509,414
3024,519,506,414
3025,519,506,414
3027,517,505,414
3028,515,504,414
3031,513,501,414
3032,510,500,414
3034,508,499,415
3035,507,498,415
3037,504,495,414
3038,502,495,415
3040,502,495,414
3041,501,496,415
3043,500,494,415
3044,498,493,415
3046,498,492,415
3047,495,491,415
3049,493,489,415
3050,491,487,415
3052,489,485,415
3053,486,484,415
3055,484,482,415
3056,483,481,415
3058,481,480,415
3059,480,480,416
3061,479,478,415
3062,478,478,416
3064,477,477,416
3065,475,475,416
3067,473,473,416
3068,471,472,416
3070,470,471,416
3072,467,469,416
3074,465,467,416
3075,464,465,416
3077,462,464,416
3078,461,464,416
3080,460,462,416
3081,459,461,416
3083,459,461,416
3084,459,461,416
3086,457,459,416
3087,456,458,416
3089,455,456,417
3090,452,455,416
3092,451,451,417
3093,449,451,417
3095,448,450,417
3096,446,448,417
3098,445,446,417
3099,444,445,417
3101,444,445,417
3102,444,446,417
3104,443,443,417
3105,442,441,417
3106,441,440,417
3108,440,438,417
3109,438,436,417
3111,437,434,417
3112,436,432,417
3115,435,431,417
3116,434,428,417
3118,433,427,417
3119,433,425,418
3121,433,425,416
3122,433,424,417
3124,432,422,417
3125,433,421,418
3127,431,418,417
3128,430,416,417
3130,430,415,417
3131,429,412,417
3133,427,409,417
3134,426,407,417
3136,426,404,417
3137,426,402,417
3139,425,400,418
3140,425,397,417
3142,425,396,417
3143,426,394,417
3145,425,392,417
3146,425,388,417
3148,424,386,417
3149,424,383,416
3151,422,378,416
3152,420,375,417
3154,420,372,416
3155,419,368,416
3158,418,366,417
3159,417,361,417
3161,418,358,416
3162,418,355,417
3164,417,351,417
3165,417,347,416
3167,416,344,416
3168,415,340,416
3170,414,336,417
3171,412,330,416
3173,410,324,416
3174,410,320,416
3176,408,318,416
3177,407,311,415
3179,406,307,415
3180,406,304,415
3182,405,301,415
3183,405,295,415
3185,403,292,415
3186,402,287,415
3188,401,283,415
3189,399,278,415
3191,397,274,415
3192,396,269,414
3194,395,265,415
3195,393,259,414
3197,392,256,415
3198,391,252,414
3201,390,249,414
3202,390,247,414
3204,390,243,414
3205,389,240,414
3207,388,236,414
3208,386,232,413
3210,384,229,413
3211,383,225,413
3213,381,222,413
3214,380,218,413
3216,379,215,412
3217,379,213,413
3219,377,212,413
3220,377,208,413
3222,377,207,413
3223,377,206,413
3225,377,205,412
3226,376,201,413
3228,376,200,412
3229,375,199,412
3231,374,197,412
3232,373,195,413
3234,372,194,412
3235,372,193,412
3236,370,193,411
3238,370,191,412
3239,371,192,411
3241,371,193,411
3243,371,193,411
3245,370,192,411
3246,370,193,411
3248,369,193,411
3249,368,194,411
3251,367,193,411
3252,366,193,410
3254,366,193,410
3255,365,195,410
3257,364,194,410
3258,363,196,410
3260,364,198,410
3261,364,200,410
3263,364,201,409
3264,363,203,409
3266,363,205,409
3267,362,208,409
3269,362,208,409
3270,361,209,409
3272,360,211,409
3273,357,214,409
3275,357,215,409
3276,357,216,408
3278,356,219,408
3279,357,223,408
3281,357,225,408
3282,357,228,408
3284,358,231,408
3286,357,234,408
3288,356,236,408
3289,356,239,407
3291,355,241,407
3292,354,243,407
3294,353,245,407
3295,353,248,407
3297,352,251,407
3298,352,254,407
3300,352,256,406
3301,353,262,407
3303,354,265,407
3304,353,269,406
3306,353,271,406
3307,353,274,406
3309,353,277,406
3310,352,279,406
3312,350,280,406
3313,350,284,406
3315,350,287,406
3316,349,289,405
3318,349,291,405
3319,350,295,405
3321,352,300,405
3322,352,303,406
3324,352,305,405
3325,352,309,405
3328,353,312,405
3329,353,316,405
3331,352,316,406
3332,351,319,405
3334,352,321,405
3335,352,324,405
3337,352,326,404
3338,353,329,404
3340,355,332,404
3341,355,337,404
3343,357,339,404
3344,358,342,404
3346,359,345,404
3347,359,347,404
3349,359,348,404
3350,360,351,403
3352,360,353,404
3353,361,356,404
3355,361,357,404
3356,363,359,403
3358,364,361,403
3359,366,366,403
3361,368,367,403
3362,370,370,403
3364,371,373,403
3365,373,375,403
3367,375,376,403
3368,376,378,403
3369,377,379,402
3372,378,382,402
3373,380,381,402
3375,381,383,402
3376,384,383,402
3378,385,385,402
3379,387,386,402
3381,389,388,402
3382,393,390,402
3384,396,392,402
3385,398,392,402
3387,401,393,401
3388,403,395,402
3390,405,396,401
3391,407,396,401
3393,409,396,401
3394,411,397,401
3396,413,398,401
3397,415,398,401
3399,418,399,401
3400,422,401,401
3402,425,403,400
3403,428,401,401
3405,431,404,401
3406,434,404,400
3408,435,405,401
3409,437,404,400
3411,439,404,400
3412,440,403,400
3415,442,404,400
3416,445,403,400
3418,446,404,400
3419,450,405,400
3421,452,406,400
3422,455,407,400
3424,458,408,400
3425,460,409,400
3427,462,409,400
3428,463,409,400
3430,465,410,400
3431,467,409,399
3433,467,411,399
3434,468,408,400
3436,469,410,399
3437,471,410,399
3439,472,412,399
3440,474,412,400
3442,477,414,400
3443,479,416,399
3445,481,418,399
3446,481,416,399
3448,484,419,399
3449,485,420,399
3451,485,421,399
3452,487,421,399
3454,488,423,399
3456,489,424,398
3458,491,427,399
3459,492,428,398
3461,495,431,398
3462,497,434,398
3464,499,438,398
3465,501,439,398
3467,502,442,398
3468,504,444,398
3470,505,448,398
3471,506,449,398
3473,507,452,398
3474,509,455,398
3476,510,459,398
3477,513,461,397
3479,514,465,398
3480,517,469,397
3482,520,475,398
3483,522,478,398
3485,525,484,398
3486,528,488,397
3488,530,492,397
3489,532,496,397
3491,534,501,397
3492,536,506,397
3494,539,512,397
3495,541,516,397
3497,544,521,397
3499,548,527,397
3500,551,534,397
3502,556,540,397
3503,560,547,396
3505,564,552,397
3506,567,559,396
3508,571,564,396
3509,575,571,396
3511,579,577,396
3512,581,583,396
3514,585,587,396
3515,589,594,396
3517,593,601,396
3518,598,608,396
3520,602,614,396
3521,608,622,396
3523,614,630,396
3524,618,637,396
3526,623,642,396
3527,627,649,395
3529,631,656,396
3530,635,662,396
3532,639,667,396
3533,644,673,396
3535,649,680,395
3536,652,686,396
3538,657,691,396
3539,662,698,395
3542,667,705,395
3543,672,713,396
3545,676,717,395
3546,680,723,395
3548,684,729,396
3549,687,735,395
3551,690,738,395
3552,692,742,395
3554,696,747,395
3555,698,753,395
3557,701,757,395
3558,704,762,395
3560,707,768,395
3561,709,773,395
3563,712,778,396
3564,715,783,395
3566,717,787,395
3567,717,792,395
3569,719,794,395
3570,719,798,395
3572,719,801,395
3573,719,804,395
3575,719,807,395
3576,719,810,395
3578,719,813,394
3579,718,816,395
3581,718,818,395
3582,718,821,394
3585,717,824,395
3586,716,826,394
3588,714,827,395
3589,712,829,394
3591,710,830,394
3592,707,831,395
3594,704,831,394
3595,701,833,394
3597,699,834,394
3598,696,836,394
3600,694,836,394
3601,692,839,394
3603,691,841,394
3604,688,842,394
3606,685,842,394
3607,682,843,394
3609,680,843,394
3610,676,843,395
3612,672,841,394
3613,669,841,394
3615,666,841,394
3616,662,841,394
3618,660,839,394
3619,657,840,394
3621,656,841,394
3622,654,842,395
3624,652,841,394
3625,650,840,394
3628,647,839,394
3629,645,838,394
3630,643,837,394
3632,640,835,394
3633,639,834,395
3635,637,832,395
3636,634,830,394
3638,633,829,395
3639,632,829,394
3641,633,830,394
3642,632,827,395
3644,633,826,395
3645,633,824,394
3647,631,823,395
3648,631,819,395
3650,630,817,395
3651,630,815,395
3653,630,812,395
3654,630,810,395
3656,631,808,395
3657,631,806,395
3659,632,805,395
3660,635,802,396
3662,636,801,395
3663,637,798,395
3665,639,796,396
3666,640,793,395
3668,642,791,395
3670,644,788,395
3672,645,785,395
3673,646,781,395
3675,647,778,395
3676,649,774,396
3678,651,773,396
3679,653,768,396
3681,656,766,396
3682,659,764,396
3684,662,762,396
3685,664,757,396
3687,666,754,396
3688,668,751,397
3690,669,747,396
3691,671,742,396
3693,673,738,396
3694,675,735,396
3696,677,731,397
3697,678,727,397
3699,681,724,397
3700,684,721,397
3702,686,719,397
3703,689,716,397
3705,691,712,397
3706,693,708,398
3708,695,705,398
3709,695,700,398
3712,696,696,398
3713,697,691,398
3715,697,687,399
3716,698,683,398
3718,699,679,398
3719,700,676,398
3721,701,673,398
3722,702,668,399
3724,703,666,399
3725,703,662,399
3727,703,660,399
3728,703,654,399
3730,703,651,399
3731,702,646,399
3733,700,641,399
3734,700,637,399
3736,699,635,400
3737,698,630,400
3739,696,626,400
3740,696,624,400
3742,696,622,400
3743,696,619,400
3745,695,617,401
3746,693,612,401
3748,691,609,400
3749,690,606,401
3751,687,604,401
3752,685,598,402
3755,682,595,401
3756,680,592,401
3758,678,591,402
3759,676,586,402
3760,675,585,403
3762,673,583,402
3763,672,581,402
3765,670,578,402
3766,668,576,402
3768,665,574,403
3769,663,571,404
3771,660,568,403
3772,658,566,405
3774,655,563,403
3775,653,561,403
3777,650,558,404
3778,648,557,404
3780,647,556,403
3781,645,556,404
3783,644,554,404
3784,642,553,404
3786,640,551,404
3787,638,549,405
3789,635,547,404
3790,632,545,405
3792,630,543,405
3793,627,542,405
3795,626,539,405
3796,623,537,405
3799,622,537,405
3800,620,537,406
3802,620,535,406
3803,618,536,406
3805,618,535,406
3806,615,534,406
3808,614,532,406
3809,612,531,406
3811,609,530,406
3812,607,529,406
3814,605,528,407
3815,603,527,407
3817,601,527,407
3818,599,526,407
3820,598,526,407
3821,597,526,407
3823,596,526,408
3824,594,527,408
3826,592,526,408
3827,591,526,408
3829,589,525,408
3830,587,525,408
3832,584,523,408
3833,582,523,408
3835,580,522,408
3836,578,523,409
3838,577,522,409
3840,575,522,409
3842,574,523,409
3843,573,524,409
3845,571,523,410
3846,569,523,409
3848,567,523,409
3849,566,524,410
3851,563,522,410
3852,561,520,410
3854,560,520,410
3855,556,520,410
3857,554,518,410
3858,552,518,410
3860,551,518,410
3861,550,519,410
3863,548,519,411
3864,547,519,411
3866,545,518,411
3867,543,519,411
3869,541,517,411
3870,538,516,411
3872,536,515,411
3873,533,515,411
3875,530,513,412
3876,528,513,412
3878,527,512,412
3879,524,512,412
3881,523,512,412
3883,522,513,412
3885,520,512,412
3886,518,513,412
3888,516,511,412
3889,513,511,412
3890,511,510,412
3892,507,508,413
3893,504,507,413
3895,502,507,413
3896,500,506,413
3898,497,506,413
3899,495,505,413
3901,494,506,413
3902,493,506,413
3904,491,506,413
3905,488,505,413
3907,486,505,414
3908,483,504,414
3910,480,503,414
3911,478,500,414
3913,474,500,414
3914,473,499,414
3916,470,500,414
3917,468,498,414
3919,467,498,414
3920,465,498,414
3922,464,499,415
3923,462,498,415
3926,460,496,414
3927,459,496,415
3929,457,495,415
3930,455,492,415
3932,453,492,415
3933,451,491,415
3935,449,491,415
3936,448,488,415
3938,446,488,415
3939,446,488,415
3941,446,488,416
3942,446,487,416
3944,446,487,416
3945,446,486,416
3947,445,484,416
3948,445,483,416
3950,444,483,416
3951,443,482,416
3953,443,480,416
3954,443,479,416
3956,443,478,416
3957,444,477,416
3959,444,477,416
3960,446,475,416
3962,446,476,416
3963,448,475,417
3965,448,475,417
3966,449,473,417
3969,450,473,417
3970,450,471,417
3972,450,471,417
3973,450,467,417
3975,451,467,417
3976,451,466,417
3978,452,465,417
3979,453,463,417
3981,455,463,416
3982,457,463,417
3984,458,463,418
3985,459,461,417
3987,460,461,417
3988,461,459,418
3990,462,458,418
3991,462,456,418
3993,462,454,418
3994,463,453,418
3996,464,451,419
3997,465,450,417
3999,466,448,418
4000,469,448,418
4002,470,447,419
4003,472,446,418
4005,473,445,418
4006,474,444,418
4008,475,443,418
4009,475,440,418
4012,475,437,418
4013,475,436,418
4015,476,435,419
4016,476,431,418
4018,477,430,418
4019,478,428,418
4020,479,427,418
4022,481,426,418
4023,483,424,419
4025,484,423,419
4026,484,422,419
4028,484,418,419
4029,485,416,418
4031,485,413,419
4032,485,411,419
4034,486,407,419
4035,486,406,418
4037,487,404,419
4038,488,403,419
4040,488,399,419
4041,489,399,418
4043,490,397,419
4044,490,394,418
4046,490,391,418
4047,490,388,419
4049,490,385,418
4050,489,382,418
4052,488,376,419
4054,487,374,418
4056,488,371,418
4057,487,368,418
4059,487,364,418
4060,487,362,418
4062,487,359,418
4063,487,356,418
4065,486,351,418
4066,485,348,418
4068,485,344,418
4069,484,341,417
4071,482,334,418
4072,480,331,418
4074,480,327,418
4075,478,323,417
4077,477,319,417
4078,476,314,417
4080,475,311,417
4081,475,309,417
4083,474,304,417
4084,474,301,417
4086,473,297,417
4087,471,294,417
4089,469,288,417
4090,467,283,417
4092,465,278,417
4093,464,274,416
4096,462,269,416
4097,461,265,416
4099,460,262,416
4100,459,262,416
4102,459,256,416
4103,458,254,416
4105,457,251,416
4106,457,248,416
4108,455,244,416
4109,453,241,416
4111,452,237,415
4112,450,234,416
4114,449,230,415
4115,447,227,415
4117,447,225,415
4118,445,222,415
4120,445,220,414
4121,445,219,415
4123,445,217,415
4124,444,215,414
4126,442,213,414
4127,442,210,414
4129,440,208,414
4130,439,206,414
4132,437,204,414
4133,436,202,414
4135,436,200,413
4136,435,200,414
4139,434,198,413
4140,434,198,413
4142,434,198,413
4143,434,199,413
4145,433,198,413
4146,433,197,412
4148,432,198,412
4149,431,197,412
4151,430,196,412
4152,428,196,412
4153,427,195,412
4155,426,196,412
4156,424,194,412
4158,423,196,412
4159,424,197,411
4161,423,198,412
4162,423,200,411
4164,422,201,411
4165,421,202,411
4167,419,205,411
4168,418,204,411
4170,417,205,411
4171,416,206,411
4173,413,208,410
4174,411,207,411
4176,410,209,410
4177,408,211,411
4179,407,215,410
4180,407,216,411
4183,407,218,410
4184,405,221,411
4186,403,224,410
4187,401,225,410
4189,399,227,410
4190,397,229,410
4192,394,231,409
4193,392,232,409
4195,390,235,409
4196,389,238,409
4198,386,240,409
4199,385,243,409
4201,383,247,409
4202,382,250,409
4204,381,254,409
4205,379,256,408
4207,377,259,408
4208,376,261,408
4210,373,264,409
4211,370,265,408
4213,368,268,408
4214,366,270,408
4216,364,273,408
4217,362,275,408
4219,361,278,407
4220,360,281,407
4222,359,286,407
4224,359,287,407
4226,357,290,407
4227,356,293,407
4229,354,296,407
4230,353,297,407
4232,351,299,407
4233,349,301,407
4235,348,303,406
4236,346,305,406
4238,346,308,406
4239,345,310,406
4241,345,313,406
4242,345,316,406
4244,344,319,406
4245,344,321,406
4247,344,323,406
4248,343,323,406
4250,342,327,406
4251,342,328,405
4253,341,330,405
4254,340,331,405
4256,340,333,405
4257,340,335,405
4259,341,337,405
4260,342,340,405
4262,343,342,405
4263,344,345,405
4265,343,346,405
4267,344,347,404
4269,344,349,405
4270,344,350,405
4272,345,352,405
4273,345,352,405
4275,346,354,404
4276,347,355,404
4278,349,358,404
4279,350,358,404
4281,352,360,404
4282,354,363,404
4283,356,365,404
4285,357,365,403
4286,359,367,403
4288,362,368,403
4289,362,370,403
4291,363,369,403
4292,365,370,403
4294,367,372,403
4295,368,373,403
4297,370,374,403
4298,373,376,403
4300,376,378,403
4301,378,381,403
4303,381,382,403
4304,383,384,403
4306,387,385,402
4307,388,387,402
4310,389,387,402
4311,392,389,402
4313,394,390,402
4314,396,392,402
4316,399,393,402
4317,401,395,402
4319,405,398,402
4320,408,402,402
4322,411,404,402
4323,415,407,402
4325,418,410,401
4326,422,413,401
4328,424,414,402
4329,428,417,401
4331,430,419,401
4332,433,422,402
4334,436,424,401
4335,439,427,401
4337,442,431,401
4338,446,435,401
4340,451,439,401
4341,456,444,401
4343,461,448,401
4344,464,452,401
4346,469,456,401
4347,472,460,401
4349,477,464,401
4350,480,468,401
4353,484,470,401
4354,489,476,401
4356,494,481,400
4357,499,486,400
4359,503,490,400
4360,509,495,400
4362,515,502,400
4363,521,508,400
4365,526,513,400
4366,532,518,400
4368,538,524,400
4369,544,529,400
4371,549,534,400
4372,554,539,400
4374,560,545,400
4375,566,551,400
4377,571,555,400
4378,578,561,400
4380,585,568,399
4381,591,576,400
4383,597,580,399
4384,604,586,399
4386,611,592,400
4387,615,599,399
4389,621,603,399
4390,626,608,399
4392,632,613,399
4393,638,619,399
4396,643,623,399
4397,648,629,399
4399,655,634,399
4400,660,640,399
4402,666,645,399
4403,672,652,399
4405,677,657,399
4406,682,662,400
4408,687,666,398
4409,691,670,398
4411,695,674,398
4412,699,678,398
4413,702,682,398
4415,707,686,398
4416,711,690,398
4418,715,695,398
4419,719,698,398
4421,723,704,398
4422,727,707,398
4424,730,711,398
4425,733,714,398
4427,736,717,398
4428,738,720,398
4430,740,722,397
4431,741,723,397
4433,742,726,397
4434,743,729,397
4436,745,731,398
4438,746,733,398
4440,747,735,397
4441,748,738,397
4443,749,741,397
4444,750,741,397
4446,750,744,397
4447,749,746,397
4449,749,748,398
4450,748,749,397
4452,747,751,397
4453,745,752,397
4455,744,753,397
4456,743,753,397
4458,741,756,397
4459,740,757,396
4461,740,760,397
4462,738,760,397
4464,737,764,396
4465,735,765,396
4467,732,766,397
4468,729,766,397
4470,726,766,396
4471,722,766,395
4473,719,766,396
4474,716,766,396
4476,713,768,396
4477,709,768,396
4480,706,769,396
4481,704,771,396
4483,701,772,396
4484,698,773,396
4486,695,773,396
4487,691,773,396
4489,687,774,396
4490,683,774,396
4492,678,773,396
4493,674,772,396
4495,670,774,396
4496,666,773,396
4498,661,774,396
4499,657,773,396
4501,654,774,396
4502,651,775,396
4504,646,776,395
4505,642,775,395
4507,638,775,395
4508,634,775,396
4510,629,774,395
4511,624,772,395
4513,619,772,396
4514,616,771,395
4516,612,771,395
4517,608,770,395
4519,605,770,395
4520,603,770,395
4523,600,771,395
4524,597,770,395
4526,594,769,395
4527,591,769,395
4529,587,768,395
4530,584,766,395
4532,580,765,395
4533,577,763,395
4535,574,762,395
4536,571,761,395
4538,569,761,395
4539,567,759,395
4541,565,760,395
4542,565,760,395
4543,563,759,395
4545,562,758,395
4546,560,757,395
4548,558,755,395
4549,557,753,395
4551,556,752,395
4552,555,751,396
4554,555,750,395
4555,553,749,395
4557,554,747,395
4558,554,747,395
4560,555,746,395
4561,556,745,395
4563,558,744,395
4564,558,743,395
4567,559,742,395
4568,560,740,395
4570,560,738,395
4571,561,736,395
4573,562,734,394
4574,564,732,395
4576,567,731,395
4577,568,729,395
4579,570,728,395
4580,573,727,395
4582,578,727,395
4583,580,726,395
4585,583,723,395
4586,585,722,395
4588,588,720,395
4589,591,719,395
4591,593,716,395
4592,595,713,395
4594,598,711,395
4595,600,710,396
4597,603,705,396
4598,606,704,396
4600,610,702,396
4601,613,702,396
4603,616,698,396
4604,620,697,396
4606,622,695,396
4608,624,693,396
4610,626,689,397
4611,627,686,396
4613,630,682,396
4614,631,680,396
4616,633,677,396
4617,633,674,397
4619,636,672,397
4620,638,671,396
4622,640,668,397
4623,642,667,397
4625,645,664,397
4626,646,663,397
4628,647,660,397
4629,647,656,397
4631,649,654,397
4632,649,650,398
4634,650,648,398
4635,650,645,398
4637,651,643,398
4638,652,641,398
4640,653,638,398
4641,654,638,398
4643,656,636,398
4644,655,634,399
4646,655,631,399
4647,655,628,399
4649,655,627,399
4651,655,624,399
4653,654,620,399
4654,654,618,399
4656,653,617,400
4657,653,615,400
4659,653,613,400
4660,653,612,400
4662,654,611,400
4663,654,610,400
4665,655,609,400
4666,654,607,401
4668,654,606,400
4669,653,604,401
4671,652,602,401
4672,652,600,401
4673,651,598,401
4675,651,597,401
4676,650,595,401
4678,650,594,401
4679,650,593,401
4681,651,592,402
4682,650,590,402
4684,650,590,402
4685,650,588,402
4687,649,586,402
4688,648,583,402
4690,647,583,403
4691,646,580,403
4694,645,579,403
4695,643,577,403
4697,643,576,403
4698,643,574,404
4700,642,575,404
4701,642,573,404
4703,642,572,403
4704,641,571,404
4706,640,571,404
4707,639,568,404
4709,638,567,404
4710,636,565,404
4712,634,564,404
4713,632,560,405
4715,630,559,404
4716,628,557,405
4718,626,556,405
4719,625,555,405
4721,624,555,405
4722,624,554,405
4724,621,553,405
4725,620,550,406
4727,617,549,405
4728,615,547,406
4730,612,544,406
4731,610,542,406
4733,606,541,406
4734,604,538,406
4737,601,537,407
4738,598,535,407
4740,597,534,407
4741,595,533,407
4743,592,532,407
4744,590,530,407
4746,587,528,407
4747,585,527,407
4749,581,525,407
4750,578,521,407
4752,574,519,407
4753,571,517,408
4755,567,516,408
4756,564,513,408
4758,562,512,408
4759,560,511,408
4761,557,510,408
4762,555,509,408
4764,552,507,409
4765,550,505,409
4767,546,504,409
4768,543,502,409
4770,540,500,409
4771,537,497,409
4773,534,496,409
4774,531,492,409
4776,528,492,409
4777,526,491,410
4780,524,489,410
4781,521,488,410
4783,519,488,410
4784,518,486,410
4786,514,486,410
4787,512,483,410
4789,510,482,410
4790,506,480,410
4792,504,479,411
4793,501,476,411
4795,499,474,411
4796,496,473,411
4798,494,473,411
4799,492,471,411
4801,491,471,412
4802,491,471,411
4803,489,471,410
4805,486,469,412
4806,484,468,412
4808,482,467,412
4809,480,467,412
4811,477,463,412
4812,475,462,413
4814,473,462,413
4815,470,463,413
4817,468,459,412
4818,466,459,412
4820,465,459,413
4822,464,460,413
4824,463,458,413
4825,461,458,413
4827,460,457,412
4828,457,457,413
4830,455,455,414
4831,452,454,413
4833,450,453,413
4834,448,452,413
4836,446,450,412
4837,444,450,413
4839,442,450,414
4840,441,451,414
4842,441,451,413
4843,439,451,413
4845,439,451,413
4846,436,451,415
4848,434,450,413
4849,432,448,414
4851,430,447,414
4852,428,447,414
4854,426,446,414
4855,424,446,414
4857,423,445,414
4858,421,445,415
4860,420,445,414
4861,420,445,415
4864,419,445,415
4865,417,445,416
4867,416,444,414
4868,414,444,415
4870,413,443,415
4871,410,443,415
4873,408,441,415
4874,406,440,415
4876,405,440,415
4877,404,440,415
4879,402,437,415
4880,401,439,415
4882,401,439,415
4883,400,439,416
4885,399,438,415
4886,398,438,415
4888,396,437,416
4889,395,437,415
4891,393,436,416
4892,392,434,416
4894,390,434,416
4895,390,432,416
4897,388,431,416
4898,388,432,416
4900,388,433,416
4901,388,433,416
4903,388,433,416
4904,387,433,416
4907,387,432,416
4908,386,433,416
4910,385,430,417
4911,385,430,416
4913,384,429,417
4914,382,429,417
4916,381,426,416
4917,380,426,416
4919,381,426,416
4920,380,427,416
4922,381,425,417
4923,380,425,417
4925,380,425,417
4926,380,424,417
4928,380,423,417
4929,379,422,416
4931,377,420,416
4932,376,418,417
4934,376,417,417
4935,376,416,417
4936,375,414,417
4938,375,414,417
4939,375,413,416
4941,376,412,417
4942,375,411,417
4944,376,411,417
4945,375,408,417
4947,375,406,417
4948,375,404,417
4951,373,402,417
4952,372,399,417
4954,371,397,416
4955,371,395,417
4957,370,393,417
4958,370,390,416
4960,371,388,416
4961,372,387,416
4963,372,384,417
4964,372,381,416
4966,372,378,417
4967,372,376,416
4969,371,372,416
4970,371,368,417
4972,371,365,416
4973,371,362,416
4975,370,358,416
4976,370,355,416
4978,370,351,416
4979,371,349,416
4981,371,346,416
4982,372,341,416
4984,373,339,415
4985,373,335,415
4987,373,332,416
4988,372,326,415
4990,371,323,416
4992,371,319,415
4994,371,315,415
4995,371,310,415
4997,372,306,414
4998,372,303,415
5000,373,299,415
5001,374,296,414
5003,375,294,415
5004,377,291,415
5006,377,286,414
5007,377,282,414
5009,378,279,414
5010,380,276,414
5012,378,274,414
5013,379,268,414
5015,380,265,414
5016,381,262,414
5018,381,260,413
5019,382,256,414
5021,384,255,413
5022,385,253,413
5024,387,251,414
5025,387,247,413
5027,388,246,413
5028,389,243,413
5030,389,241,413
5031,388,237,413
5033,389,235,413
5035,389,234,412
5037,391,232,413
5038,392,231,412
5040,394,231,412
5041,396,231,412
5043,399,231,412
5044,399,230,412
5046,401,229,412
5047,401,228,411
5049,401,229,412
5050,402,227,412
5052,403,226,411
5053,403,225,411
5055,403,226,411
5056,404,225,411
5058,405,225,411
5059,406,226,411
5061,407,228,411
5062,408,228,411
5064,408,229,411
5065,409,230,410
5066,409,230,410
5068,408,230,410
5069,407,230,410
5071,407,230,410
5072,406,231,410
5074,405,231,410
5075,405,231,410
5078,404,233,409
5079,403,234,409
5081,403,236,409
5082,404,237,409
5084,403,239,409
5085,402,240,409
5087,402,240,409
5088,400,241,409
5090,400,242,409
5091,398,243,410
5093,397,244,408
5094,395,245,408
5096,394,246,408
5097,393,249,408
5099,393,250,408
5100,393,253,408
5102,393,255,408
5103,392,258,408
5105,391,259,408
5106,390,261,408
5108,390,263,408
5109,388,264,408
5111,386,265,407
5112,385,268,408
5114,385,270,407
5115,383,273,407
5117,383,274,407
5118,383,277,407
5121,383,280,407
5122,383,284,407
5124,383,284,406
5125,382,287,407
5127,383,290,406
5128,382,293,406
5130,381,293,406
5131,381,295,406
5133,381,298,406
5134,381,302,406
5136,382,302,406
5137,382,306,405
5139,384,308,406
5140,385,312,407
5142,387,315,405
5143,388,318,406
5145,390,321,405
5146,391,324,405
5148,391,325,405
5149,393,328,405
5151,394,330,405
5152,395,333,405
5154,397,334,405
5155,398,337,405
5157,400,339,405
5158,403,343,404
5160,406,345,405
5161,410,349,405
5164,414,352,404
5165,417,355,404
5167,420,357,404
5168,423,361,404
5170,427,363,404
5171,429,365,404
5173,432,367,404
5174,437,370,404
5176,441,373,404
5177,444,376,403
5179,449,379,403
5180,453,384,403
5182,459,388,403
5183,464,392,403
5185,467,394,403
5186,472,398,403
5188,477,402,403
5189,481,404,403
5191,485,407,403
5192,488,409,403
5194,493,414,403
5195,497,418,403
5196,502,421,402
5198,507,426,402
5199,513,431,402
5201,519,437,402
5202,524,441,402
5204,528,446,402
5206,534,450,402
5208,538,455,402
5209,543,459,402
5211,547,463,402
5212,551,467,402
5214,556,472,402
5215,561,476,402
5217,566,482,402
5218,572,487,402
5220,577,495,401
5221,583,500,401
5223,588,506,401
5224,594,512,401
5226,599,519,402
5227,603,522,402
5229,608,528,402
5230,613,533,402
5232,617,539,401
5233,621,543,401
5235,626,549,401
5236,631,554,401
5238,636,561,401
5239,641,566,401
5241,647,573,400
5242,652,579,400
5244,657,585,400
5245,660,589,400
5248,665,594,401
5249,670,599,400
5251,673,604,400
5252,676,608,400
5254,680,612,400
5255,684,617,400
5257,687,622,400
5258,690,624,399
5260,695,631,400
5261,700,636,400
5263,703,640,400
5264,707,644,400
5266,710,650,400
5267,714,653,399
5269,717,657,400
5270,719,659,399
5272,721,663,400
5273,724,665,400
5275,726,669,400
5276,728,671,399
5278,730,674,399
5279,733,678,399
5281,736,681,399
5282,738,683,399
5284,740,686,399
5285,742,688,399
5287,742,690,399
5288,744,690,399
5291,744,691,399
5292,744,692,399
5294,744,694,399
5295,744,694,399
5297,745,695,398
5298,745,696,399
5300,746,698,399
5301,746,698,398
5303,747,701,398
5304,747,701,398
5306,747,702,399
5307,747,702,398
5309,745,701,399
5310,744,701,398
5312,742,700,398
5313,741,699,398
5315,739,698,398
5316,737,698,399
5318,736,697,398
5319,735,697,398
5321,734,698,398
5322,735,698,398
5324,732,698,398
5325,730,696,398
5326,727,695,398
5328,725,694,397
5329,723,694,398
5331,719,690,399
5332,717,689,397
5335,715,688,398
5336,711,687,397
5338,708,685,397
5339,706,684,397
5341,704,684,397
5342,702,685,397
5344,698,682,398
5345,696,681,397
5347,691,680,397
5348,689,680,397
5350,685,676,397
5351,681,675,397
5353,676,673,397
5354,673,672,397
5356,669,670,397
5357,664,669,397
5359,661,668,397
5360,657,668,397
5362,654,667,397
5363,649,666,396
5365,645,665,397
5366,640,665,397
5368,636,662,396
5369,630,661,397
5371,626,660,397
5372,620,659,396
5374,615,656,396
5376,610,655,396
5378,606,654,396
5379,601,654,396
5381,597,653,396
5382,593,653,397
5384,589,652,396
5385,584,652,397
5387,580,651,396
5388,576,650,396
5390,570,648,396
5391,565,647,396
5393,560,646,396
5394,555,644,396
5396,551,643,396
5397,546,643,397
5399,543,643,395
5400,539,643,396
5402,537,643,396
5403,533,644,396
5405,530,643,396
5406,526,642,396
5408,523,642,396
5409,518,641,396
5411,514,639,395
5412,511,639,395
5414,508,639,396
5415,504,639,396
5417,502,638,395
5419,499,639,395
5421,498,639,395
5422,497,639,395
5424,494,639,396
5425,493,640,395
5427,491,639,395
5428,488,639,395
5430,486,638,395
5431,484,637,395
5433,483,637,395
5434,481,637,395
5436,479,636,395
5437,478,636,395
5439,478,636,395
5440,478,638,395
5442,478,638,395
5443,478,638,395
5445,478,638,395
5446,478,639,395
5448,478,638,395
5449,477,637,395
5451,477,637,395
5452,477,637,395
5454,478,636,395
5455,479,636,395
5456,479,636,395
5458,480,635,395
5459,481,636,395
5462,484,637,395
5463,485,637,395
5465,487,637,395
5466,488,637,395
5468,490,637,395
5469,492,637,395
5471,492,637,394
5472,494,636,394
5474,496,636,394
5475,498,636,394
5477,499,637,395
5478,502,636,394
5480,505,637,394
5481,508,638,394
5483,512,639,394
5484,513,640,394
5486,516,640,394
5487,519,641,394
5489,521,642,394
5490,523,641,394
5492,525,641,394
5493,527,642,395
5495,529,644,395
5496,532,642,394
5498,535,643,394
5499,539,645,394
5501,543,647,395
5502,545,649,394
5505,548,649,395
5506,550,650,394
5508,554,651,394
5509,555,651,394
5511,557,652,394
5512,560,652,395
5514,562,653,394
5515,564,652,395
5517,566,655,394
5518,569,656,394
5520,573,658,395
5521,576,659,394
5523,579,661,394
5524,581,661,395
5526,584,662,394
5527,585,662,395
5529,587,664,395
5530,589,663,394
5532,590,663,395
5533,591,663,395
5535,594,664,394
5536,595,664,395
5538,597,666,395
5539,600,664,395
5541,602,666,395
5542,605,667,395
5544,607,668,395
5545,608,666,395
5548,610,667,395
5549,611,667,395
5551,612,667,395
5552,613,664,395
5554,614,664,396
5555,616,664,396
5557,617,666,395
5558,618,662,395
5560,620,663,396
5561,623,662,396
5563,623,662,396
5564,624,661,396
5566,626,661,396
5567,627,660,396
5569,627,660,396
5570,627,657,396
5572,627,655,396
5573,628,653,396
5575,628,653,397
5576,629,650,396
5578,629,649,396
5579,631,648,396
5581,632,649,396
5582,633,647,397
5584,633,645,397
5585,633,643,397
5586,633,642,397
5588,633,639,397
5590,632,636,398
5592,631,634,397
5593,630,631,399
5595,630,628,398
5596,629,626,398
5598,628,624,398
5599,628,622,398
5601,628,621,398
5602,628,619,398
5604,628,617,398
5605,627,616,398
5607,625,612,399
5608,624,610,399
5610,622,607,399
5611,620,604,399
5613,619,601,399
5614,617,599,399
5616,615,596,399
5617,614,594,399
5619,613,590,399
5620,612,590,400
5622,610,589,400
5623,609,587,400
5625,606,583,400
5626,604,581,400
5628,601,578,400
5629,598,575,400
5632,594,571,400
5633,591,569,401
5635,589,566,400
5636,585,563,400
5638,582,560,401
5639,580,559,401
5641,578,558,401
5642,576,557,401
5644,573,553,401
5645,570,551,401
5647,567,549,402
5648,564,547,402
5650,560,543,402
5651,557,541,402
5653,554,538,402
5654,550,536,403
5656,547,532,403
5657,543,530,403
5659,541,528,402
5660,538,528,402
5662,536,525,403
5663,533,523,403
5665,530,521,403
5666,527,520,403
5668,524,516,403
5669,521,513,403
5671,518,510,403
5672,514,509,403
5675,511,506,404
5676,508,503,404
5678,505,502,404
5679,503,500,404
5681,501,498,404
5682,499,497,404
5684,497,496,404
5685,494,494,405
5687,492,492,405
5688,490,490,405
5690,488,488,405
5691,485,486,405
5693,482,483,405
5694,480,481,406
5696,477,480,405
5697,476,479,405
5699,475,477,406
5700,474,477,406
5702,474,476,406
5703,472,475,407
5705,471,473,406
5706,470,472,406
5708,468,471,406
5709,467,469,407
5711,465,466,407
5712,463,464,407
5714,463,463,407
5715,462,462,407
5718,461,461,407
5719,461,460,407
5720,462,460,407
5722,462,460,408
5723,462,459,408
5725,462,458,407
5726,462,457,408
5728,462,456,408
5729,461,454,408
5731,460,452,408
5732,460,452,408
5734,460,451,408
5735,460,449,409
5737,460,448,409
5738,461,448,409
5740,462,448,409
5741,463,447,408
5743,464,448,409
5744,465,447,409
5746,464,446,410
5747,465,446,410
5749,465,445,410
5750,464,444,409
5752,465,444,411
5753,465,441,411
5755,465,441,410
5756,466,440,410
5758,466,441,410
5760,467,439,411
5762,469,440,410
5763,470,440,410
5765,470,441,412
5766,470,439,411
5768,470,438,411
5769,470,437,411
5771,470,437,413
5772,469,435,411
5774,469,435,411
5775,469,434,412
5777,469,434,412
5778,469,433,412
5780,470,434,412
5781,470,434,412
5783,471,435,412
5784,470,433,412
5786,470,434,412
5787,470,432,412
5789,469,433,412
5790,468,430,412
5792,467,430,413
5793,466,429,412
5795,465,428,413
5796,465,428,413
5798,465,428,413
5799,465,428,413
5801,465,429,414
5803,465,428,413
5805,464,428,414
5806,464,429,413
5808,463,429,413
5809,462,427,414
5811,460,427,414
5812,459,426,414
5814,457,426,414
5815,456,425,414
5817,456,424,414
5818,455,425,414
5820,455,426,414
5821,455,425,414
5823,454,427,412
5824,454,426,415
5826,453,427,415
5827,451,425,415
5829,451,425,415
5830,448,425,415
5832,447,424,415
5833,446,423,415
5835,444,424,415
5836,443,423,416
5838,442,424,415
5839,442,424,416
5841,442,424,415
5842,441,425,415
5844,440,425,416
5846,439,424,417
5848,438,425,416
5849,436,424,416
5850,434,423,416
5852,433,422,416
5853,431,422,416
5855,431,423,416
5856,429,424,416
5858,428,422,417
5859,428,424,416
5861,429,425,416
5862,428,427,416
5864,427,426,416
5865,426,427,416
5867,425,426,417
5868,424,428,416
5870,423,426,417
5871,421,425,417
5873,420,425,417
5874,420,426,417
5876,419,424,417
5877,418,424,417
5879,418,425,417
5880,419,426,417
5882,419,427,417
5883,419,427,417
5885,419,427,417
5886,419,428,417
5889,418,426,417
5890,418,426,417
5892,417,425,417
5893,417,425,417
5895,416,424,417
5896,416,424,417
5898,416,423,417
5899,417,424,417
5901,417,423,417
5902,418,424,417
5904,418,424,417
5905,418,423,417
5907,417,421,418
5908,417,421,418
5910,416,419,418
5911,416,418,417
5913,414,416,418
5914,415,414,417
5916,415,413,417
5917,414,413,417
5919,414,412,417
5920,415,411,418
5922,415,410,418
5923,415,410,418
5925,414,408,417
5926,413,406,418
5928,413,404,418
5929,411,402,417
5932,409,398,417
5933,409,396,418
5935,408,393,417
5936,407,391,417
5938,405,388,417
5939,405,386,417
5941,405,384,417
5942,404,383,417
5944,403,379,417
5945,402,376,417
5947,401,372,417
5948,399,368,417
5950,397,364,417
5951,395,359,417
5953,393,355,417
5954,391,351,416
5956,389,347,417
5957,387,343,417
5959,386,339,416
5960,384,337,417
5962,384,331,417
5963,383,328,416
5965,382,324,417
5966,380,320,416
5968,378,314,416
5969,376,310,416
5971,374,304,416
5972,373,300,416
5975,371,295,416
5976,370,291,416
5978,369,286,415
5979,368,282,415
5980,368,278,416
5982,368,275,415
5983,367,271,415
5985,367,268,416
5986,366,262,415
5988,366,259,415
5989,365,254,415
5991,363,250,415
5992,362,245,414
5994,363,242,414
5995,362,238,414
5997,362,236,414
5998,363,231,414
6000,363,230,414
6001,365,227,414
6003,366,226,413
6004,367,222,414
6006,367,219,414
6007,369,217,413
6009,369,215,413
6010,369,211,413
6012,371,210,413
6013,372,209,413
6016,373,208,413
6017,376,206,412
6019,378,207,412
6020,382,207,412
6022,385,208,413
6023,388,208,412
6025,390,208,412
6026,394,209,412
6028,396,211,412
6029,399,211,412
6031,402,211,412
6032,405,212,412
6034,408,215,411
6035,412,217,412
6037,415,219,411
6038,420,222,411
6040,425,226,411
6041,430,229,411
6043,434,234,411
6044,439,239,411
6046,443,242,411
6047,447,246,411
6049,451,252,411
6050,456,255,411
6052,460,262,411
6053,465,266,409
6055,469,272,410
6056,474,278,410
6059,479,284,410
6060,484,291,410
6062,490,299,410
6063,495,306,409
6065,500,315,410
6066,505,320,409
6068,510,328,409
6069,516,335,409
6071,519,344,409
6072,523,349,409
6074,528,358,409
6075,533,365,409
6077,537,374,409
6078,541,382,409
6080,547,392,408
6081,553,402,408
6083,558,411,408
6084,562,420,408
6086,566,429,408
6087,570,437,408
6089,574,447,408
6090,577,453,408
6092,580,462,407
6093,584,471,407
6095,588,480,408
6096,591,488,407
6098,595,498,407
6099,600,507,407
6102,604,518,407
6103,608,526,407
6105,611,535,407
6106,615,543,407
6108,617,552,407
6109,620,559,407
6110,621,566,406
6112,624,574,406
6113,625,581,407
6115,629,588,407
6116,631,596,406
6118,634,604,406
6119,637,613,406
6121,639,619,406
6122,642,626,406
6124,644,634,406
6125,646,640,406
6127,648,645,406
6128,649,651,405
6130,650,656,405
6131,651,661,406
6133,652,666,405
6134,654,670,405
6136,655,675,405
6137,655,680,405
6139,657,684,405
6140,659,689,405
6142,660,692,404
6144,661,696,405
6146,662,696,404
6147,663,701,404
6149,664,703,405
6150,663,705,404
6152,663,705,404
6153,663,707,404
6155,664,708,404
6156,664,710,404
6158,665,710,404
6159,665,712,404
6161,666,713,404
6162,668,714,404
6164,669,713,404
6165,670,714,403
6167,670,714,403
6168,670,714,403
6170,671,712,403
6171,670,711,403
6173,671,710,403
6174,670,710,403
6176,670,707,403
6177,671,707,403
6179,672,706,403
6180,673,706,403
6182,674,704,403
6183,674,704,402
6185,675,702,402
6187,674,700,402
6189,674,699,402
6190,675,697,402
6192,673,694,402
6193,673,693,403
6195,673,690,402
6196,672,689,402
6198,673,688,402
6199,673,687,402
6201,674,685,402
6202,674,685,402
6204,674,683,402
6205,673,682,402
6207,672,680,401
6208,672,677,402
6210,670,675,402
6211,667,673,402
6213,666,670,401
6214,664,668,401
6216,662,666,401
6217,661,665,401
6219,660,663,401
6220,658,662,401
6222,658,662,401
6223,656,660,401
6225,653,658,401
6226,651,657,400
6228,648,655,401
6230,645,653,400
6232,641,650,400
6233,638,648,400
6235,634,647,400
6236,632,644,400
6238,628,643,400
6239,625,641,400
6240,623,641,400
6242,620,640,400
6243,616,637,400
6245,612,635,400
6246,609,633,400
6248,604,631,400
6249,599,627,400
6251,594,626,400
6252,589,623,399
6254,585,621,399
6255,580,619,400
6257,575,617,399
6258,571,615,399
6260,567,614,399
6261,563,612,399
6263,559,610,399
6264,555,608,399
6266,550,605,399
6267,545,603,399
6269,540,600,399
6270,534,597,399
6273,529,595,399
6274,525,591,399
6276,520,590,399
6277,515,588,399
6279,511,587,398
6280,507,584,399
6282,504,583,399
6283,500,581,398
6285,495,581,399
6286,490,576,399
6288,487,575,398
6289,483,572,398
6291,479,571,398
6292,474,567,398
6294,472,566,398
6295,467,564,398
6297,465,564,398
6298,462,561,398
6300,461,561,398
6301,459,561,398
6303,457,561,398
6304,455,559,398
6306,453,558,398
6307,451,557,398
6309,449,557,398
6310,447,554,397
6312,445,553,398
6313,444,552,397
6316,442,552,398
6317,442,550,397
6319,441,550,397
6320,442,551,397
6322,443,553,399
6323,444,552,397
6325,444,553,397
6326,445,553,397
6328,445,553,397
6329,446,553,397
6331,446,553,397
6332,448,553,397
6334,448,553,398
6335,449,553,397
6337,451,554,397
6338,454,555,397
6340,456,557,398
6341,459,558,397
6343,462,559,397
6344,464,561,397
6346,466,562,397
6347,468,563,397
6349,470,563,397
6350,472,564,396
6352,473,564,397
6353,476,564,397
6355,479,566,397
6356,482,567,397
6359,484,569,396
6360,487,570,396
6362,492,573,397
6363,495,575,396
6365,498,577,396
6366,501,577,396
6368,503,579,396
6369,506,580,396
6370,509,581,396
6372,511,580,396
6373,513,582,396
6375,516,584,396
6376,519,585,396
6378,521,586,396
6379,526,589,396
6381,530,591,396
6382,532,594,396
6384,535,593,396
6385,538,595,396
6387,540,596,396
6388,543,599,396
6390,544,598,396
6391,546,599,396
6393,549,600,396
6394,551,603,396
6396,553,602,396
6397,556,604,396
6400,559,606,395
6401,562,610,396
6403,565,610,396
6404,567,612,396
6406,570,613,396
6407,573,614,395
6409,574,614,396
6410,576,615,396
6412,578,615,395
6413,579,617,395
6415,581,617,395
6416,583,617,395
6418,585,619,395
6419,588,621,396
6421,591,622,395
6422,593,624,395
6424,596,625,395
6425,597,626,395
6427,598,626,395
6428,599,627,396
6430,601,627,395
6431,601,628,395
6433,603,627,396
6434,604,628,395
6436,605,629,395
6437,606,630,395
6439,608,631,395
6440,611,633,395
6443,612,634,395
6444,613,635,395
6446,614,635,395
6447,614,636,395
6449,615,636,395
6450,614,636,395
6452,614,636,395
6453,614,635,395
6455,614,637,395
6456,614,637,395
6458,615,637,395
6459,616,638,395
6461,617,640,395
6462,617,640,395
6464,617,638,395
6465,618,640,395
6467,618,641,395
6468,617,641,395
6470,616,639,396
6471,615,639,396
6473,615,638,395
6474,614,639,396
6476,614,637,395
6477,613,637,395
6479,614,637,395
6480,614,637,395
6482,614,637,395
6483,614,638,396
6486,613,637,395
6487,613,638,395
6489,612,635,396
6490,611,634,396
6492,609,632,396
6493,608,632,396
6495,607,630,396
6496,606,628,396
6498,605,627,396
6499,605,628,396
6501,604,626,396
6502,605,626,396
6503,604,624,396
6505,603,624,396
6506,602,621,396
6508,601,620,396
6509,600,618,397
6511,597,616,396
6512,596,613,396
6514,595,611,397
6515,594,610,397
6517,593,609,397
6518,592,606,397
6520,593,605,397
6521,592,604,397
6523,591,602,397
6524,590,600,397
6526,589,597,398
6528,588,596,397
6530,586,593,398
6531,584,589,397
6533,583,587,397
6534,582,585,397
6536,580,582,398
6537,580,579,398
6539,579,578,398
6540,579,576,398
6542,579,575,398
6543,577,573,398
6545,576,570,398
6546,575,567,398
6548,574,565,399
6549,572,561,399
6551,570,559,399
6552,568,556,399
6554,567,554,399
6555,566,551,399
6557,565,549,399
6558,564,547,399
6560,563,546,400
6561,563,543,399
6563,563,542,400
6564,561,539,399
6566,560,537,400
6567,558,534,400
6569,558,531,400
6571,555,529,400
6573,553,526,400
6574,552,523,400
6576,549,521,401
6577,549,519,400
6579,548,517,401
6580,547,515,401
6582,547,514,401
6583,545,512,401
6585,544,510,401
6586,542,507,401
6588,540,505,402
6589,539,503,401
6591,537,502,402
6592,535,498,402
6594,533,496,401
6595,531,494,402
6597,530,494,402
6598,529,490,402
6600,528,490,402
6601,528,490,403
6603,527,490,402
6604,525,486,403
6606,524,485,403
6607,523,483,403
6609,521,482,403
6610,519,479,403
6612,517,477,403
6614,516,476,404
6616,514,474,404
6617,513,472,404
6619,512,471,403
6620,512,470,403
6622,511,471,404
6623,510,468,404
6625,510,467,404
6626,509,466,405
6628,507,466,404
6629,505,463,405
6631,504,461,405
6632,502,459,405
6633,501,459,405
6635,500,456,405
6636,499,455,405
6638,498,455,405
6639,498,455,406
6641,498,453,406
6642,497,453,405
6644,496,452,405
6645,495,451,406
6647,495,449,406
6648,494,448,406
6650,492,446,406
6651,491,445,407
6653,489,443,406
6654,489,442,407
6657,488,442,407
6658,487,441,408
6660,487,441,406
6661,488,441,407
6663,488,441,407
6664,487,440,408
6666,487,439,407
6667,486,438,407
6669,485,437,407
6670,484,436,408
6672,483,433,407
6673,482,433,408
6675,481,433,408
6676,480,432,408
6678,480,431,408
6679,480,432,408
6681,481,432,408
6682,480,432,408
6684,479,431,408
6685,479,430,409
6687,478,429,409
6688,477,427,409
6690,475,427,409
6691,474,426,409
6693,473,426,409
6694,472,425,409
6696,471,424,409
6697,471,424,409
6700,472,425,409
6701,471,427,410
6703,470,425,410
6704,470,425,409
6706,469,424,410
6707,467,425,410
6709,466,423,411
6710,464,422,410
6712,462,421,411
6713,460,422,411
6715,459,420,411
6716,458,420,411
6718,457,420,412
6719,455,421,411
6721,454,420,411
6722,454,421,411
6724,452,421,411
6725,450,421,412
6727,449,420,412
6728,447,420,411
6730,445,419,412
6731,442,419,412
6733,440,418,412
6734,437,418,412
6736,435,418,412
6737,434,419,412
6739,432,418,413
6740,431,420,412
6743,431,421,412
6744,428,422,413
6746,426,420,413
6747,423,420,412
6749,421,421,413
6750,418,421,413
6752,416,419,413
6753,414,419,413
6755,412,420,413
6756,410,419,413
6758,408,420,413
6759,407,420,413
6761,406,422,414
6762,406,423,413
6763,404,423,414
6765,403,424,413
6766,402,424,414
6768,400,424,414
6769,398,423,414
6771,396,423,414
6772,395,423,414
6774,394,424,415
6775,393,423,414
6777,392,423,414
6778,392,424,415
6780,392,426,414
6781,391,424,414
6784,390,426,415
6785,390,427,415
6787,389,427,415
6788,387,426,415
6790,387,426,414
6791,386,426,415
6793,385,425,415
6794,384,424,415
6796,383,425,415
6797,382,426,415
6799,383,427,415
6800,384,427,415
6802,384,428,416
6803,386,429,415
6805,384,430,416
6806,384,428,416
6808,383,429,415
6809,384,428,416
6811,382,429,416
6812,382,428,416
6814,382,428,416
6815,383,428,416
6817,382,428,416
6818,383,429,416
6820,385,431,416
6821,384,431,416
6823,384,432,416
6824,384,430,416
6827,385,432,416
6828,385,432,416
6830,384,432,416
6831,383,429,416
6833,383,429,416
6834,382,429,416
6836,383,429,417
6837,383,428,416
6839,383,428,417
6840,384,429,417
6842,385,430,417
6843,385,429,417
6845,385,429,417
6846,385,428,417
6848,385,428,417
6849,385,426,417
6851,384,425,417
6852,384,424,417
6854,384,424,417
6855,384,422,417
6857,384,421,417
6858,385,421,417
6860,386,422,417
6861,387,421,417
6863,388,421,417
6864,390,420,417
6866,390,420,417
6867,390,419,418
6870,391,418,417
6871,392,417,417
6873,391,416,417
6874,393,415,417
6876,393,414,417
6877,395,414,417
6879,397,414,417
6880,398,414,417
6882,401,414,417
6883,402,414,418
6885,404,414,417
6886,406,413,417
6888,407,412,417
6889,409,412,417
6891,409,410,417
6892,411,410,417
6893,413,410,417
6895,414,409,418
6896,417,410,417
6898,420,409,417
6899,423,411,417
6901,426,412,417
6902,430,412,417
6904,433,413,417
6905,436,414,417
6907,440,413,417
6908,441,414,417
6910,444,413,417
6912,446,414,417
6914,450,415,417
6915,453,415,417
6917,457,415,417
6918,462,417,417
6920,466,419,416
6921,472,421,416
6923,476,422,416
6924,480,423,416
6926,485,424,417
6927,489,425,417
6929,494,425,416
6930,498,426,416
6932,502,427,417
6933,507,428,416
6935,512,429,416
6936,517,430,416
6938,522,431,416
6939,528,434,416
6941,533,436,416
6942,539,438,416
6944,545,440,416
6945,549,442,416
6947,554,442,415
6948,559,443,415
6950,563,444,415
6951,567,445,416
6953,572,446,416
6955,576,447,415
6957,582,448,415
6958,585,450,415
6960,591,451,415
6961,596,454,415
6963,601,456,415
6964,606,458,415
6966,610,458,414
6967,614,460,415
6969,618,461,414
6970,622,462,415
6972,625,463,414
6973,630,464,414
6975,633,467,414
6976,638,469,414
6978,642,469,414
6979,646,472,414
6981,651,475,413
6982,656,478,413
6984,660,480,413
6985,663,481,413
6987,666,483,413
6988,670,484,413
6990,672,484,413
6991,674,487,412
6993,677,489,413
6994,680,491,412
6996,683,492,412
6998,686,495,413
7000,689,498,412
7001,692,503,412
7003,695,503,412
7004,698,506,412
7006,700,508,411
7007,702,511,412
7009,703,512,411
7010,704,513,412
7012,706,514,411
7013,705,517,411
7015,706,518,411
7016,707,520,411
7018,707,523,410
7019,708,526,411
7021,709,528,411
7022,709,530,411
7023,710,532,410
7025,709,534,411
7026,708,534,410
7028,707,536,410
7029,706,537,410
7031,705,540,410
7032,703,540,410
7034,703,541,410
7035,701,543,410
7037,699,545,410
7038,698,546,410
7041,697,549,409
7042,696,551,409
7044,694,553,410
7045,691,554,409
7047,689,556,409
7048,687,556,409
7050,683,558,411
7051,679,557,408
7053,676,559,408
7054,673,559,408
7056,670,561,409
7057,666,561,408
7059,663,563,408
7060,661,565,408
7062,657,567,408
7063,653,567,408
7065,650,568,408
7066,647,569,408
7068,642,571,407
7069,637,570,408
7071,632,571,407
7072,629,571,407
7074,624,572,407
7075,619,572,407
7077,615,573,407
7078,611,575,407
7080,609,577,407
7081,605,578,407
7084,601,579,407
7085,596,580,407
7087,592,581,407
7088,588,581,406
7090,583,581,406
7091,578,581,406
7093,573,581,406
7094,568,579,406
7096,563,581,406
7097,559,581,406
7099,556,583,406
7100,553,584,406
7102,550,585,406
7103,546,586,405
7105,542,586,406
7106,538,586,405
7108,535,587,405
7109,531,586,405
7111,527,585,405
7112,523,585,405
7114,520,586,405
7115,517,586,405
7117,514,587,405
7118,511,587,404
7120,510,588,405
7121,509,589,404
7123,506,590,404
7124,503,588,405
7127,501,588,404
7128,499,588,404
7130,497,588,404
7131,495,586,405
7133,493,585,404
7134,492,585,404
7136,491,586,403
7137,490,584,404
7139,490,584,404
7140,491,585,404
7142,490,586,404
7143,490,584,403
7145,490,584,403
7146,490,584,403
7148,489,584,404
7149,489,581,404
7151,489,580,403
7152,489,580,403
7153,489,579,403
7155,488,578,403
7156,489,577,403
7158,490,576,403
7159,491,577,403
7161,493,575,403
7162,493,575,402
7164,494,574,402
7165,494,574,402
7168,494,571,402
7169,495,570,402
7171,496,568,402
7172,496,567,402
7174,496,565,402
7175,496,563,402
7177,498,564,401
7178,499,562,401
7180,500,561,401
7181,502,561,402
7183,502,560,401
7184,503,559,401
7186,504,557,401
7187,504,556,401
7189,504,556,401
7190,504,552,402
7192,503,550,401
7193,504,549,401
7195,503,548,401
7196,504,547,402
7198,504,544,401
7199,505,545,400
7201,507,544,400
7202,506,544,401
7204,506,541,400
7205,506,541,401
7207,506,540,400
7208,505,539,401
7211,503,536,400
7212,503,535,400
7214,503,534,400
7215,500,532,400
7217,500,530,400
7218,498,530,400
7220,499,530,399
7221,499,530,400
7223,498,529,400
7224,497,529,400
7226,496,528,399
7227,495,529,400
7229,493,526,399
7230,492,525,399
7232,489,524,399
7233,488,523,399
7235,486,521,399
7236,485,522,399
7238,484,521,400
7239,484,523,399
7241,484,522,399
7242,483,523,399
7244,483,522,399
7245,481,523,399
7247,480,521,399
7248,479,521,398
7250,477,520,399
7251,475,520,398
7254,474,519,398
7255,473,519,398
7257,473,519,399
7258,472,520,398
7260,472,518,398
7261,472,521,398
7263,472,522,398
7264,472,522,398
7266,471,521,398
7267,470,521,398
7269,470,521,398
7270,469,520,398
7272,468,519,398
7273,468,520,398
7275,468,520,397
7276,468,519,397
7278,468,520,397
7279,469,521,397
7281,471,522,397
7282,473,523,398
7284,472,523,397
7285,474,523,397
7286,475,524,397
7288,475,524,397
7289,475,522,397
7291,475,522,397
7292,476,523,397
7294,477,523,397
7296,477,523,397
7298,479,524,397
7299,480,524,397
7301,482,525,397
7302,484,525,397
7304,486,526,397
7305,486,526,396
7307,487,526,397
7308,488,525,397
7310,489,525,397
7311,489,525,397
7313,490,525,396
7314,491,525,396
7316,492,525,396
7317,493,525,397
7319,495,526,397
7320,497,527,397
7322,499,528,396
7323,501,528,396
7325,501,528,396
7326,502,528,396
7328,503,528,396
7329,504,528,396
7331,502,529,396
7332,502,527,396
7334,503,528,396
7335,503,528,395
7337,504,529,396
7339,505,529,396
7341,507,531,396
7342,508,532,396
7344,509,533,396
7345,509,533,396
7347,509,535,396
7348,509,535,396
7350,508,537,395
7351,508,535,396
7353,508,537,395
7354,508,537,395
7356,507,539,395
7357,506,538,396
7359,506,541,395
7360,507,543,395
7362,507,546,395
7363,506,546,395
7365,505,547,395
7366,505,548,395
7368,503,549,396
7369,501,549,395
7371,500,550,395
7372,499,551,395
7374,497,552,395
7375,496,552,395
7377,495,554,395
7378,494,555,395
7380,494,558,395
7382,494,558,395
7384,492,561,395
7385,492,561,395
7387,491,564,395
7388,489,563,395
7390,487,563,395
7391,485,563,395
7393,484,564,395
7394,483,564,395
7396,481,565,395
7397,481,566,395
7399,480,566,394
7400,480,568,394
7402,480,569,394
7403,480,570,394
7405,479,571,395
7406,478,571,394
7408,478,571,395
7409,477,571,394
7411,476,572,394
7412,475,570,394
7414,476,572,395
7415,476,573,394
7416,476,574,394
7418,477,574,394
7419,478,576,395
7421,480,577,394
7422,480,579,394
7425,480,579,394
7426,481,579,394
7428,482,579,395
7429,482,579,394
7431,482,579,394
7432,483,579,395
7434,484,579,394
7435,485,580,394
7437,485,579,395
7438,487,581,395
7440,489,582,395
7441,492,582,394
7443,493,584,395
7444,495,584,395
7446,496,584,395
7447,498,585,394
7449,499,583,395
7450,500,584,395
7452,502,583,395
7453,502,584,395
7455,504,583,395
7456,505,583,395
7458,508,583,395
7459,509,585,396
7461,512,585,395
7462,514,585,394
7464,515,585,395
7465,516,586,395
7468,517,584,396
7469,518,583,395
7471,519,583,395
7472,520,582,396
7474,522,581,396
7475,522,581,396
7477,524,581,395
7478,526,581,395
7480,528,581,395
7481,531,581,396
7483,533,581,395
7484,535,581,396
7486,536,579,396
7487,537,579,396
7489,538,577,396
7490,539,576,396
7492,538,574,398
7493,540,573,396
7495,540,571,396
7496,541,571,396
7498,542,569,396
7499,544,569,396
7501,545,568,396
7502,546,567,396
7504,546,566,397
7505,547,564,397
7507,547,563,397
7508,546,560,397
7511,546,558,397
7512,545,556,397
7514,545,553,397
7515,545,552,397
7517,544,549,397
7518,544,548,397
7520,545,547,397
7521,545,545,397
7523,545,544,398
7524,545,542,398
7526,544,540,398
7527,543,538,398
7529,542,535,397
7530,540,532,399
7532,538,529,398
7533,537,527,398
7535,536,523,398
7536,534,522,398
7538,533,521,399
7539,533,521,399
7541,532,518,399
7542,531,516,399
7544,530,514,399
7545,528,513,399
7546,527,509,399
7548,525,508,399
7549,522,505,399
7552,520,503,400
7553,518,499,400
7555,516,498,400
7556,515,496,400
7558,513,495,400
7559,511,492,400
7561,511,493,400
7562,509,491,400
7564,507,490,400
7565,505,488,400
7567,503,486,401
7568,500,484,401
7570,497,481,401
7571,495,478,401
7573,492,477,401
7574,490,475,401
7576,487,474,402
7577,486,472,401
7579,483,471,401
7580,482,471,402
7582,480,471,402
7583,478,469,402
7585,475,467,402
7586,473,465,402
7588,469,464,402
7589,467,461,402
7591,463,460,402
7592,461,458,403
7595,458,457,403
7596,455,456,403
7598,453,455,403
7599,452,455,403
7601,451,456,404
7602,448,454,404
7604,446,453,403
7605,444,453,404
7607,441,453,404
7608,439,450,403
7610,436,449,403
7611,433,448,404
7613,431,447,405
7614,428,446,404
7616,426,445,404
7617,425,445,404
7619,423,445,405
7620,422,444,404
7622,421,445,405
7623,419,444,404
7625,417,444,405
7626,416,442,404
7628,414,442,405
7629,412,442,405
7631,410,441,405
7632,408,439,405
7634,407,439,406
7635,406,438,405
7638,405,437,406
7639,404,438,406
7641,404,439,406
7642,404,439,406
7644,403,439,406
7645,403,438,406
7647,402,439,406
7648,402,437,406
7650,401,438,406
7651,400,435,406
7653,399,435,407
7654,399,434,407
7656,399,434,407
7657,399,433,407
7659,399,434,407
7660,400,435,408
7662,401,436,407
7663,402,435,408
7665,402,435,407
7666,402,435,408
7668,402,434,408
7669,402,433,408
7671,402,432,408
7672,403,432,408
7674,402,432,408
7675,402,431,408
7676,404,431,408
7678,405,431,408
7680,406,432,408
7682,407,433,408
7683,409,433,409
7685,409,433,409
7686,409,433,409
7688,410,433,409
7689,410,432,409
7691,410,431,409
7692,410,431,409
7694,410,430,409
7695,410,429,409
7697,411,429,409
7698,412,431,409
7700,413,431,410
7701,414,432,409
7703,415,431,410
7704,415,431,409
7706,415,431,410
7707,415,430,410
7709,414,430,410
7710,414,429,410
7712,414,429,410
7713,414,428,410
7715,414,428,410
7716,413,429,410
7718,414,428,411
7719,415,429,410
7721,416,430,410
7723,416,431,411
7725,416,429,411
7726,416,429,411
7728,417,430,411
7729,416,430,411
7731,415,428,411
7732,415,428,411
7734,415,428,411
7735,415,429,411
7737,415,428,411
7738,416,428,411
7740,417,429,411
7741,418,429,412
7743,418,429,411
7744,419,430,411
7746,419,430,412
7747,419,430,412
7749,419,429,412
7750,418,428,412
7752,419,428,412
7753,420,430,412
7755,420,428,412
7756,421,428,412
7758,423,429,412
7759,425,432,412
7761,427,431,412
7762,428,432,413
7764,430,433,413
7766,432,435,413
7768,433,433,412
7769,434,434,413
7771,436,434,413
7772,437,436,413
7774,439,435,413
7775,441,436,413
7777,444,438,414
7778,447,440,412
7780,450,441,413
7781,454,443,414
7783,459,445,413
7784,462,448,414
7786,466,449,414
7787,469,451,414
7789,473,453,414
7790,477,455,414
7792,480,456,414
7793,485,459,414
7795,490,461,414
7796,495,465,415
7798,499,467,414
7799,506,471,414
7801,513,476,414
7802,518,479,414
7804,524,482,414
7805,530,486,414
7806,535,489,414
7809,541,494,414
7810,546,495,414
7812,552,499,415
7813,559,503,415
7815,564,508,415
7816,571,512,415
7818,578,517,415
7819,585,523,415
7821,592,528,415
7822,599,533,415
7824,606,538,415
7825,612,543,415
7827,619,548,415
7828,625,552,415
7830,631,558,415
7831,637,561,415
7833,643,566,416
7834,649,571,415
7836,655,577,415
7837,663,582,415
7839,669,588,415
7840,675,594,416
7842,682,599,415
7843,688,604,415
7845,693,610,415
7846,698,614,416
7848,704,619,416
7849,708,623,416
7852,713,627,416
7853,717,632,416
7855,722,637,416
7856,726,641,416
7858,730,648,416
7859,735,651,416
7861,740,656,416
7862,746,661,416
7864,749,666,417
7865,752,669,416
7867,755,673,416
7868,758,676,416
7870,760,680,416
7871,762,681,416
7873,764,684,416
7874,765,687,416
7876,767,690,416
7877,768,692,416
7879,771,696,416
7880,773,700,416
7882,775,702,416
7883,776,704,416
7885,777,707,416
7886,777,708,416
7888,777,711,416
7889,776,710,416
7891,775,711,416
7892,776,712,416
7895,775,713,416
7896,774,713,416
7898,773,714,416
7899,773,715,416
7901,772,716,416
7902,771,716,416
7904,769,716,416
7905,768,715,416
7907,765,715,416
7908,762,713,416
7910,759,711,416
7911,756,710,416
7913,753,708,416
7914,750,706,416
7916,747,704,416
7917,745,701,416
7919,742,702,415
7920,740,700,416
7922,736,699,416
7923,733,697,416
7925,730,694,416
7926,726,691,416
7928,722,689,416
7929,718,685,415
7931,713,682,415
7932,709,678,415
7934,705,674,415
7936,702,671,416
7937,698,668,415
7939,694,663,415
7940,691,661,415
7942,688,658,415
7943,684,654,415
7945,680,649,415
7946,676,645,415
7948,672,640,415
7949,668,636,415
7951,663,630,414
7952,659,626,414
7954,655,621,415
7955,651,616,415
7957,647,611,414
7958,644,608,414
7960,641,604,414
7961,638,601,414
7963,634,595,414
7964,631,590,415
7966,628,585,413
7967,623,581,414
7969,619,574,414
7970,615,569,413
7972,611,564,414
7973,607,559,413
7975,604,553,413
7976,600,549,414
7979,597,544,413
7980,595,541,413
7982,592,536,413
7983,589,532,413
7985,586,528,413
7986,582,524,414
7988,579,519,413
7989,576,514,412
7991,573,510,412
7992,569,506,412
7994,566,501,413
7995,562,497,412
7997,560,494,412
7998,558,492,412
8000,555,488,412
8001,554,486,412
8003,552,483,412
8004,549,481,411
8006,546,476,411
8007,543,473,411
8009,541,470,411
8010,536,467,411
8012,533,462,411
8013,531,460,411
8015,529,458,411
8016,526,456,411
8018,525,454,411
8019,524,454,410
8022,522,453,410
8023,521,452,411
8025,519,449,410
8026,517,448,410
8028,515,446,410
8029,512,445,410
8031,509,443,410
8032,507,441,410
8034,505,440,410
8035,503,440,410
8037,501,438,411
8038,500,439,409
8040,499,439,409
8041,498,439,410
8043,497,437,409
8044,495,438,409
8046,493,438,409
8047,491,438,409
8049,488,437,409
8050,486,436,408
8052,484,436,408
8053,482,436,408
8055,480,435,408
8056,479,436,408
8058,477,437,408
8059,477,437,408
8061,475,439,408
8062,474,439,408
8065,473,440,408
8066,471,441,408
8068,469,440,408
8069,468,440,407
8070,466,440,407
8072,463,442,408
8073,462,440,407
8075,460,441,406
8076,459,441,407
8078,457,443,408
8079,456,443,408
8081,456,444,407
8082,455,445,407
8084,452,447,408
8085,451,445,406
8087,450,446,407
8088,449,446,406
8090,446,446,407
8091,445,446,406
8093,444,447,406
8094,444,448,406
8096,443,449,406
8097,443,449,406
8099,444,451,406
8100,444,452,406
8102,444,454,406
8103,444,454,405
8105,445,455,405
8107,445,455,405
8109,444,456,406
8110,444,455,404
8112,445,455,405
8113,445,456,405
8115,445,456,405
8116,446,456,405
8118,447,458,405
8119,449,460,404
8121,452,462,405
8122,453,462,404
8124,455,463,404
8125,457,463,404
8127,458,464,404
8128,459,464,404
8130,461,463,404
8131,462,464,404
8133,464,464,404
8134,466,463,404
8136,468,465,404
8137,471,466,403
8139,474,467,403
8140,477,468,403
8142,481,469,403
8143,484,469,403
8145,486,470,403
8146,488,467,403
8148,490,469,403
8150,492,469,403
8152,494,470,403
8153,497,468,403
8155,500,469,402
8156,502,469,403
8158,505,470,403
8159,509,470,403
8161,512,471,402
8162,516,472,402
8164,519,473,402
8165,521,472,402
8167,524,473,402
8168,527,472,402
8170,529,471,402
8171,530,470,402
8173,533,470,402
8174,536,470,402
8176,538,471,402
8177,541,469,401
8179,544,470,402
8180,549,471,402
8182,551,472,402
8183,554,471,401
8185,558,471,401
8186,560,471,401
8188,563,470,401
8189,565,469,401
8192,567,469,401
8193,571,468,401
8195,572,468,401
8196,575,467,401
8198,578,467,401
8199,581,467,401
8200,584,468,401
8202,587,467,401
8203,589,467,400
8205,592,467,401
8206,593,466,401
8208,595,464,400
8209,596,463,400
8211,598,462,400
8212,599,461,401
8214,601,459,400
8215,602,458,400
8217,605,457,400
8218,608,458,400
8220,610,456,400
8221,612,456,400
8223,614,455,400
8224,615,456,400
8226,617,453,400
8227,618,452,400
8229,619,451,400
8230,620,449,400
8232,621,447,400
8233,622,446,400
8236,622,446,399
8237,623,445,400
8239,624,444,399
8240,626,444,399
8242,627,444,399
8243,627,443,400
8245,627,442,399
8246,627,441,399
8248,626,440,399
8249,625,438,399
8251,623,436,398
8252,622,436,399
8254,621,435,399
8255,619,434,399
8257,618,432,399
8258,616,433,398
8260,616,433,399
8261,614,433,399
8263,613,432,399
8264,610,431,398
8266,608,430,399
8267,605,429,398
8269,601,428,398
8270,598,427,399
8272,594,427,398
8273,591,426,398
8275,587,425,398
8276,584,425,398
8279,580,426,398
8280,578,428,398
8282,574,427,398
8283,570,426,398
8285,567,426,397
8286,561,427,398
8288,557,426,398
8289,552,425,398
8291,546,424,398
8292,541,425,398
8294,536,423,398
8295,531,423,397
8297,526,423,398
8298,521,424,397
8300,517,425,397
8301,512,426,397
8303,507,426,397
8304,501,426,398
8306,495,425,397
8307,489,425,397
8309,483,425,397
8310,476,424,397
8312,470,423,397
8313,463,423,397
8315,457,423,397
8316,450,423,397
8318,444,423,398
8320,439,424,397
8322,433,424,397
8323,428,425,397
8325,422,425,397
8326,416,426,397
8328,410,426,397
8329,404,426,397
8330,398,425,396
8332,392,425,397
8333,387,426,396
8335,381,428,396
8336,376,427,396
8338,372,428,396
8339,369,429,396
8341,364,431,397
8342,360,431,396
8344,355,432,396
8345,352,433,396
8347,348,435,396
8348,344,434,396
8350,339,434,396
8351,336,434,396
8353,332,435,396
8354,329,435,396
8356,327,436,396
8357,326,437,396
8359,324,439,396
8360,322,439,396
8363,321,443,396
8364,320,444,396
8366,319,446,396
8367,318,446,396
8369,317,447,396
8370,316,447,396
8372,315,448,396
8373,314,448,395
8375,314,450,396
8376,314,451,395
8378,315,452,396
8379,318,454,395
8381,319,457,396
8382,321,459,395
8384,323,461,396
8385,324,461,395
8387,326,463,395
8388,327,464,395
8390,328,465,395
8391,331,465,395
8393,333,466,395
8394,337,468,395
8396,339,470,395
8397,343,472,395
8399,347,474,395
8400,351,477,395
8402,355,480,395
8403,359,480,395
8406,363,482,395
8407,367,484,395
8409,370,484,395
8410,373,486,395
8412,377,487,395
8413,381,489,395
8415,385,491,395
8416,390,491,395
8418,394,494,395
8419,399,496,395
8421,405,499,395
8422,408,499,395
8424,412,501,395
8425,416,502,395
8427,419,504,395
8428,422,504,395
8430,425,505,395
8431,428,506,395
8433,431,508,394
8434,433,508,395
8436,436,511,395
8437,439,512,394
8439,442,514,394
8440,445,516,395
8442,448,517,395
8443,450,519,395
8445,452,520,395
8446,453,521,394
8449,455,522,394
8450,455,523,394
8452,456,524,394
8453,457,524,394
8455,457,524,395
8456,458,525,395
8458,458,527,394
8459,459,528,395
8460,460,530,395
8462,461,531,394
8463,462,533,395
8465,461,531,395
8466,461,534,395
8468,461,534,395
8469,459,534,394
8471,458,533,395
8472,457,533,395
8474,456,534,394
8475,455,535,394
8477,454,535,395
8478,454,536,395
8480,455,538,395
8481,454,538,395
8483,453,539,395
8484,452,539,395
8486,451,538,395
8487,449,539,395
8489,447,537,395
8491,445,536,395
8493,444,536,395
8494,442,537,395
8496,440,534,395
8497,440,534,395
8499,439,535,395
8500,440,536,395
8502,438,534,395
8503,437,534,395
8505,436,533,396
8506,436,532,395
8508,434,530,396
8509,433,529,396
8511,431,528,396
8512,430,527,396
8514,429,525,396
8515,428,524,396
8517,428,523,396
8518,428,524,396
8520,428,522,396
8521,428,521,396
8523,427,520,396
8524,427,519,397
8526,427,517,396
8527,426,515,396
8529,425,513,397
8530,424,512,397
8532,423,509,397
8534,423,508,397
8536,423,506,397
8537,423,506,397
8539,424,504,397
8540,425,503,397
8542,425,503,397
8543,425,502,397
8545,425,499,398
8546,425,498,397
8548,424,496,397
8549,424,495,397
8551,423,491,398
8552,423,491,398
8554,423,489,398
8555,422,488,398
8557,422,486,398
8558,422,485,398
8560,423,484,398
8561,424,484,398
8563,424,482,398
8564,425,482,398
8566,425,480,399
8567,425,479,398
8569,424,476,399
8570,424,475,398
8572,423,474,399
8573,423,474,399
8576,423,471,399
8577,423,471,400
8579,425,471,399
8580,425,471,399
8582,426,470,399
8583,425,469,399
8585,425,469,399
8586,425,467,400
8588,425,466,400
8589,424,465,400
8590,423,463,400
8592,422,463,400
8593,421,462,400
8595,421,461,400
8596,421,460,401
8598,421,462,401
8599,421,460,400
8601,422,461,400
8602,422,460,400
8604,421,460,401
8605,420,458,401
8607,420,458,401
8608,419,457,401
8610,417,457,401
8611,415,455,402
8613,414,454,402
8614,413,453,402
8616,411,453,401
8617,411,453,402
8620,411,454,402
8621,411,454,402
8623,409,453,402
8624,408,451,403
8626,407,450,402
8627,405,450,403
8629,404,449,403
8630,402,447,402
8632,401,446,403
8633,400,445,403
8635,399,446,403
8636,399,444,403
8638,399,444,403
8639,400,443,403
8641,400,444,403
8642,400,443,403
8644,401,443,403
8645,401,443,404
8647,400,442,404
8648,400,440,404
8650,400,439,404
8651,401,438,404
8653,401,437,405
8654,401,436,403
8656,402,436,404
8657,404,436,404
8659,405,437,404
8660,408,437,405
8663,409,437,405
8664,411,437,405
8666,413,437,405
8667,415,436,405
8669,416,437,405
8670,418,436,405
8672,420,437,405
8673,422,435,405
8675,425,437,405
8676,427,438,406
8678,431,439,405
8679,435,440,406
8681,439,443,406
8682,444,445,405
8684,447,446,406
8685,451,447,405
8687,455,449,406
8688,458,450,407
8690,462,450,406
8691,466,451,405
8693,470,454,406
8694,474,456,406
8696,480,459,406
8697,486,462,407
8699,492,466,407
8700,498,470,407
8702,505,474,407
8704,511,476,407
8706,517,480,407
8707,523,484,408
8709,529,487,407
8710,534,489,407
8712,541,493,408
8713,547,497,408
8715,554,502,407
8716,560,505,408
8718,568,510,408
8719,575,515,408
8720,582,522,408
8722,589,525,408
8723,596,530,408
8725,603,536,408
8726,610,540,408
8728,616,544,408
8729,622,549,409
8731,629,553,408
8732,635,559,409
8734,642,563,409
8735,649,569,409
8737,656,574,409
8738,663,581,410
8740,671,586,409
8741,678,592,409
8743,684,597,409
8744,690,603,409
8747,696,607,410
8748,702,612,410
8750,708,616,409
8751,711,620,410
8753,717,623,410
8754,722,629,410
8756,727,634,410
8757,733,639,410
8759,738,643,410
8760,744,649,410
8762,750,653,410
8763,755,659,410
8765,760,661,410
8766,764,665,410
8768,768,669,410
8769,772,672,411
8771,775,675,411
8772,778,678,411
8774,781,681,411
8775,785,684,411
8777,788,687,411
8778,792,691,411
8780,796,694,411
8781,799,697,411
8783,802,698,411
8784,804,702,411
8786,807,704,411
8787,808,706,411
8790,809,706,411
8791,810,707,411
8793,811,708,411
8794,811,710,411
8796,812,709,411
8797,813,711,411
8799,815,713,411
8800,816,715,412
8802,817,715,412
8803,817,717,412
8805,816,717,411
8806,817,719,412
8808,816,717,412
8809,815,717,412
8811,815,716,413
8812,813,717,412
8814,811,715,412
8815,809,715,412
8817,809,715,412
8818,807,715,412
8820,806,715,412
8821,805,715,412
8823,803,714,413
8824,801,714,412
8826,798,712,413
8827,796,711,412
8829,792,709,412
8830,788,707,413
8833,784,705,413
8834,781,704,413
8836,778,702,413
8837,774,702,413
8839,770,700,413
8840,768,699,412
8842,765,698,413
8843,760,697,413
8845,756,695,413
8846,752,693,413
8848,747,691,413
8849,742,689,413
8851,736,686,413
8852,731,683,413
8853,726,681,413
8855,720,679,413
8856,715,676,413
8858,711,674,414
8859,707,672,413
8861,702,671,413
8862,696,668,413
8864,690,666,413
8865,685,664,413
8867,679,661,413
8868,672,657,413
8870,666,653,413
8871,661,651,413
8873,654,648,413
8875,648,645,413
8877,642,642,413
8878,638,641,413
8880,632,639,414
8881,628,636,413
8883,622,634,413
8884,617,631,413
8886,612,629,413
8887,605,625,413
8889,599,621,413
8890,593,618,413
8892,587,614,413
8893,581,610,413
8895,575,608,413
8896,570,604,413
8898,565,601,413
8899,561,598,413
8901,557,596,413
8902,552,593,412
8904,547,589,413
8905,541,584,413
8907,536,581,413
8908,531,576,413
8910,525,573,412
8911,520,566,412
8913,516,563,412
8914,512,558,413
8916,507,555,412
8918,502,548,412
8920,499,544,412
8921,496,540,412
8923,491,536,412
8924,487,529,412
8926,482,523,412
8927,478,518,412
8929,475,512,412
8930,470,504,412
8932,466,498,412
8933,462,492,411
8935,458,486,412
8936,455,480,411
8938,453,475,411
8939,450,469,411
8941,448,464,412
8942,446,458,411
8944,442,452,411
8945,440,447,411
8947,437,441,411
8948,434,434,410
8950,432,427,411
8951,429,421,410
8953,427,415,411
8954,425,409,411
8956,423,404,410
8957,422,399,410
8960,422,395,410
8961,421,390,410
8963,420,386,410
8964,420,380,410
8966,419,376,410
8967,418,370,410
8969,417,366,410
8970,417,360,410
8972,416,356,410
8973,415,351,409
8975,416,348,410
8976,417,344,409
8978,418,342,410
8979,420,340,409
8981,423,338,409
8982,425,335,409
8983,426,334,409
8985,428,331,409
8986,430,330,408
8988,432,327,409
8989,434,325,409
8991,436,323,408
8992,439,322,408
8994,442,321,408
8995,445,321,408
8997,448,320,408
8998,451,321,408
9000,457,321,407
9001,460,322,408
9004,464,322,408
9005,467,322,408
9007,471,323,408
9008,473,323,407
9010,476,323,408
9011,479,324,407
9013,483,325,407
9014,485,326,407
9016,489,328,407
9017,492,330,407
9019,496,333,406
9020,500,337,406
9022,503,337,406
9023,506,340,406
9025,510,342,407
9026,512,345,406
9028,514,346,406
9029,516,348,406
9031,518,350,406
9032,519,354,406
9034,521,354,405
9035,524,358,406
9037,525,361,406
9038,527,365,406
9040,529,368,406
9041,531,372,406
9043,532,374,406
9044,533,378,405
9047,534,381,407
9048,533,383,405
9050,534,385,405
9051,532,389,405
9053,532,390,405
9054,531,392,405
9056,530,395,405
9057,530,399,405
9059,529,401,405
9060,529,405,405
9062,528,408,404
9063,527,411,405
9065,525,413,404
9066,523,416,404
9068,520,418,404
9069,518,420,404
9071,515,421,404
9072,511,424,404
9074,508,426,403
9075,505,430,403
9077,502,431,404
9078,500,434,403
9080,498,437,403
9081,495,440,404
9083,491,442,403
9084,488,444,403
9086,484,446,403
9088,480,448,404
9090,477,449,403
9091,472,451,403
9093,468,453,403
9094,465,455,403
9096,461,455,402
9097,458,458,402
9099,454,461,403
9100,452,464,403
9102,448,465,402
9103,446,467,402
9105,442,470,402
9106,438,471,402
9108,435,472,402
9109,431,473,402
9111,427,474,402
9112,424,475,402
9113,420,476,401
9115,418,478,402
9116,415,479,401
9118,413,481,402
9119,411,483,402
9121,409,484,402
9122,406,486,401
9124,404,488,401
9125,401,487,402
9127,399,489,401
9128,396,489,401
9131,393,490,401
9132,390,488,401
9134,387,489,401
9135,386,490,401
9137,383,490,401
9138,382,490,401
9140,381,493,400
9141,381,493,400
9143,378,494,401
9144,377,493,401
9146,376,494,401
9147,375,494,400
9149,373,493,400
9150,371,491,401
9152,370,492,400
9153,369,491,400
9155,367,491,400
9156,367,490,400
9158,366,490,400
9159,367,491,400
9161,367,491,400
9162,366,490,400
9164,366,490,400
9165,366,489,400
9167,364,488,400
9168,363,486,399
9170,362,485,399
9171,361,483,399
9174,360,483,399
9175,360,481,399
9177,359,480,399
9178,359,479,399
9180,360,479,399
9181,360,478,399
9183,359,478,399
9184,359,477,399
9186,359,476,399
9187,358,473,399
9189,357,471,399
9190,356,470,399
9192,354,468,399
9193,353,467,399
9195,353,465,399
9196,352,465,398
9198,352,464,399
9199,352,463,398
9201,351,463,398
9202,351,461,398
9204,350,461,398
9205,348,458,398
9207,347,457,398
9208,346,456,398
9210,345,455,398
9211,343,453,398
9213,342,452,398
9214,340,451,398
9217,340,450,398
9218,339,448,398
9220,339,449,397
9221,339,449,397
9223,338,447,398
9224,337,446,397
9226,336,446,397
9227,335,445,397
9229,333,445,398
9230,332,442,398
9232,331,441,397
9233,331,441,397
9235,330,441,398
9236,329,439,398
9238,329,439,397
9239,330,440,397
9241,330,441,397
9242,330,439,397
9243,330,439,397
9245,330,439,397
9246,329,440,397
9248,329,437,397
9249,328,437,397
9251,328,436,396
9252,328,436,398
9254,328,435,396
9255,329,435,397
9257,330,436,396
9259,331,437,396
9261,332,437,396
9262,333,437,396
9264,335,437,396
9265,335,438,396
9267,336,437,396
9268,336,437,396
9270,337,436,396
9271,337,436,396
9273,338,435,396
9274,339,435,396
9276,340,435,396
9277,342,437,396
9279,344,437,396
9280,347,437,395
9282,349,438,395
9283,351,438,395
9285,352,438,395
9286,354,438,395
9288,355,438,395
9289,357,438,395
9291,359,437,395
9292,361,437,395
9294,363,437,395
9295,366,438,395
9297,369,438,395
9298,372,439,395
9300,376,440,395
9302,379,441,395
9304,382,441,395
9305,385,441,394
9307,387,441,395
9308,390,441,395
9310,393,439,395
9311,395,441,395
9313,399,442,395
9314,402,443,395
9316,405,443,395
9317,409,444,395
9319,413,446,394
9320,418,447,395
9322,421,448,394
9323,425,450,395
9325,428,451,395
9326,431,451,395
9328,434,452,394
9329,437,452,395
9331,440,453,394
9332,442,455,394
9334,445,454,394
9335,448,455,395
9337,453,457,394
9338,455,460,394
9340,459,460,394
9341,461,462,394
9344,465,463,394
9345,467,465,394
9347,469,465,394
9348,471,466,394
9350,472,468,394
9351,473,469,394
9353,475,469,394
9354,477,470,394
9356,479,471,394
9357,480,473,394
9359,483,475,394
9360,484,477,394
9362,486,478,394
9363,487,480,394
9365,487,481,394
9366,488,482,394
9368,488,483,394
9369,488,484,394
9371,487,484,394
9372,487,486,394
9373,487,487,394
9375,487,488,394
9376,487,489,394
9378,488,491,394
9379,489,494,394
9381,488,496,394
9382,488,497,394
9384,488,499,394
9385,488,500,394
9388,487,502,394
9389,485,502,394
9391,484,503,394
9392,484,504,394
9394,483,506,394
9395,482,507,394
9397,482,508,394
9398,482,511,394
9400,482,514,394
9401,482,515,394
9403,482,517,394
9404,480,518,394
9406,479,519,394
9407,478,520,394
9409,477,521,393
9410,475,522,394
9412,474,523,394
9413,473,522,394
9415,472,525,394
9416,472,526,394
9418,472,529,394
9419,473,531,394
9421,473,532,394
9422,473,533,394
9424,472,535,394
9425,472,534,394
9427,472,536,394
9428,471,536,394
9431,470,537,394
9432,469,538,394
9434,469,538,394
9435,470,539,394
9437,470,542,394
9438,470,541,394
9440,471,543,394
9441,472,544,394
9443,472,546,395
9444,472,545,394
9446,473,546,394
9447,473,546,395
9449,473,546,395
9450,472,544,395
9452,473,545,395
9453,473,545,395
9455,474,546,396
9456,474,544,395
9458,476,545,395
9459,477,546,395
9461,479,547,396
9462,479,546,395
9464,480,545,395
9465,481,545,396
9467,481,545,396
9468,482,543,396
9470,482,541,395
9472,482,540,396
9474,482,538,396
9475,482,537,395
9477,483,535,396
9478,484,535,396
9480,486,536,396
9481,487,532,396
9483,488,533,396
9484,490,532,396
9486,490,531,396
9487,490,528,396
9489,490,526,396
9490,490,524,396
9492,490,523,397
9493,491,520,397
9495,492,518,397
9496,493,517,397
9498,494,515,397
9499,495,514,397
9501,497,513,397
9502,497,512,397
9503,497,510,397
9505,498,508,397
9506,498,506,397
9508,498,503,398
9509,497,501,398
9511,497,498,398
9512,497,496,398
9515,496,494,398
9516,497,493,398
9518,497,491,399
9519,497,490,398
9521,499,489,398
9522,497,488,398
9524,498,485,399
9525,497,484,399
9527,497,481,399
9528,496,480,399
9530,494,477,399
9531,494,475,400
9533,493,473,399
9534,492,472,399
9536,492,470,399
9537,492,470,399
9539,494,470,399
9540,493,470,400
9542,492,468,400
9543,493,467,400
9545,492,466,400
9546,492,467,400
9548,492,465,400
9549,491,464,400
9551,492,462,400
9552,491,463,400
9554,491,462,401
9555,492,463,401
9558,493,463,401
9559,495,465,401
9561,496,465,401
9562,498,466,401
9564,499,467,401
9565,500,469,401
9567,501,468,401
9568,503,469,401
9570,504,470,401
9571,505,471,402
9573,507,471,402
9574,510,473,402
9576,512,475,402
9577,515,477,402
9579,519,479,403
9580,523,483,402
9582,527,485,402
9583,530,488,403
9585,534,491,403
9586,538,494,403
9588,542,496,403
9589,546,499,403
9591,549,501,403
9592,553,505,403
9594,558,508,403
9595,563,512,403
9597,569,516,403
9598,574,521,404
9601,581,526,403
9602,586,530,404
9604,592,534,404
9605,597,537,404
9607,603,542,404
9608,608,546,404
9610,612,550,404
9611,617,554,404
9613,623,558,405
9614,628,563,404
9616,634,567,405
9617,640,573,404
9619,648,578,405
9620,653,584,405
9622,660,587,405
9623,666,593,405
9625,671,599,405
9626,677,604,405
9628,681,607,406
9629,686,611,405
9631,691,616,406
9632,696,621,406
9634,700,625,406
9635,705,629,406
9636,710,634,406
9638,716,639,406
9639,720,644,406
9641,725,649,406
9643,731,654,406
9645,733,657,406
9646,737,661,407
9648,740,665,407
9649,744,668,407
9651,746,673,407
9652,749,674,407
9654,751,678,407
9655,754,682,407
9657,757,685,407
9658,760,688,407
9660,763,693,408
9661,766,697,408
9663,768,698,407
9664,769,701,408
9666,771,705,408
9667,772,706,408
9669,772,708,408
9670,772,709,408
9672,772,711,408
9673,773,712,408
9675,771,715,409
9676,771,716,408
9678,771,718,408
9679,772,720,409
9681,771,722,409
9682,770,723,409
9684,769,724,409
9686,768,724,409
9688,765,725,409
9689,763,724,409
9691,760,724,409
9692,758,724,409
9694,756,725,409
9695,753,724,409
9697,751,725,409
9698,749,725,410
9700,748,727,410
9701,744,726,410
9703,743,726,410
9704,739,725,410
9706,736,725,410
9707,732,723,411
9709,728,722,410
9710,724,720,410
9712,720,719,410
9713,716,717,410
9715,712,716,411
9716,708,715,411
9718,705,715,411
9719,702,714,411
9721,699,713,411
9722,695,712,411
9724,691,711,411
9725,687,708,411
9728,683,707,411
9729,679,705,411
9731,674,703,411
9732,670,700,411
9734,667,699,411
9735,663,697,411
9737,659,697,411
9738,656,694,411
9740,654,694,412
9741,652,693,412
9743,648,691,412
9744,644,689,412
9746,641,688,412
9747,638,686,412
9749,634,683,412
9750,630,680,412
9752,626,678,412
9753,623,676,412
9755,620,674,412
9756,617,672,412
9758,615,671,412
9759,614,670,413
9761,612,670,413
9762,609,667,412
9764,607,666,412
9765,605,665,413
9766,603,662,413
9768,600,659,413
9769,597,657,413
9772,595,655,413
9773,592,654,413
9775,590,651,414
9776,588,649,413
9778,586,648,413
9779,584,648,413
9781,583,645,413
9782,580,644,413
9784,579,642,413
9785,576,640,414
9787,574,637,413
9788,571,634,414
9790,568,632,413
9791,566,630,414
9793,564,627,414
9794,561,626,413
9796,560,624,413
9797,558,623,413
9799,558,622,413
9800,557,621,414
9802,555,619,414
9803,553,616,414
9805,551,614,414
9806,549,612,413
9808,547,609,413
9809,544,607,414
9811,542,604,413
9812,540,602,414
9815,539,599,414
9816,536,597,414
9818,536,595,414
9819,535,593,414
9821,534,593,414
9822,533,591,414
9824,531,589,414
9825,530,586,414
9827,528,583,414
9828,527,581,414
9830,524,577,414
9831,523,575,414
9833,522,573,414
9834,521,570,414
9836,519,567,414
9837,518,565,414
9839,519,563,414
9840,518,563,414
9842,518,560,414
9843,517,558,414
9845,516,555,414
9846,515,553,414
9848,513,549,414
9849,511,547,414
9851,510,544,415
9852,509,542,414
9854,509,537,414
9856,507,536,414
9858,509,535,414
9859,508,535,414
9861,509,531,414
9862,508,530,414
9864,508,528,414
9865,508,525,414
9867,507,522,414
9868,506,520,414
9870,505,517,414
9871,504,515,414
9873,503,511,414
9874,503,509,414
9876,502,507,414
9877,503,505,414
9879,502,502,414
9880,502,501,414
9882,502,498,414
9883,501,495,414
9885,500,492,413
9886,499,489,414
9888,498,487,413
9889,496,483,413
9891,496,479,413
9892,495,476,413
9894,494,474,413
9895,493,471,413
9896,493,468,413
9899,494,465,413
9900,494,463,413
9902,494,460,413
9903,493,457,413
9905,492,454,413
9906,492,451,413
9908,491,448,413
9909,490,444,413
9911,489,441,412
9912,489,438,412
9914,488,435,412
9915,488,431,412
9917,487,429,412
9918,488,426,412
9920,490,425,412
9921,489,421,412
9923,489,418,411
9924,489,416,412
9926,489,413,412
9927,489,410,412
9929,488,407,411
9930,487,404,411
9932,487,401,411
9933,487,398,411
9935,486,396,411
9936,487,394,411
9938,488,393,411
9939,489,390,411
9942,489,390,411
9943,490,387,411
9945,490,386,411
9946,490,383,411
9948,490,382,410
9949,490,379,410
9951,490,377,410
9952,489,375,410
9954,490,373,410
9955,490,372,410
9957,491,371,410
9958,492,370,410
9960,494,370,410
9961,496,370,410
9963,495,370,409
9964,496,368,409
9966,496,367,409
9967,497,366,409
9969,496,366,409
9970,496,363,409
9972,496,363,409
9973,497,362,409
9975,496,362,409
9976,496,360,408
9978,497,361,408
9979,498,362,409
9981,498,363,408
9982,499,362,408
9985,499,362,408
9986,499,361,408
9988,498,361,408
9989,497,359,408
9991,497,360,407
9992,496,360,407
9994,495,360,408
9995,494,359,408
9997,493,360,407
9998,494,361,407
10000,494,363,407
10001,493,364,407
10003,492,364,407
10004,491,365,407
10006,489,365,407
10007,487,365,406
10009,484,365,407
10011,481,366,407
10012,480,366,407
10014,477,366,406
10015,475,367,406
10017,473,369,406
10019,471,371,406
10020,469,372,406
10022,466,373,406
10023,464,374,407
10025,461,377,406
10027,458,377,406
10029,455,377,405
10031,450,377,405
10032,447,378,405
10034,443,380,404
10035,440,380,405
10037,437,382,405
10038,435,385,405
10040,432,388,405
10042,428,388,405
10043,425,390,405
10045,421,391,405
10046,417,392,404
10048,414,393,405
10049,409,394,405
10051,405,394,405
10053,401,396,405
10054,397,397,404
10056,394,398,404
10057,391,400,404
10059,389,401,404
10061,387,403,404
10062,383,405,404
10064,381,408,404
10065,378,408,403
10067,374,408,403
10068,372,408,403
10071,367,408,403
10073,365,409,403
10074,362,410,403
10076,360,411,404
10077,358,412,403
10079,357,414,403
10080,357,415,403
10082,354,416,402
10084,352,416,403
10085,350,417,402
10087,348,416,402
10088,346,417,402
10090,344,416,403
10091,343,416,402
10093,341,416,402
10095,340,416,402
10096,339,417,402
10098,339,418,402
10099,340,418,402
10101,340,419,402
10103,338,419,402
10104,339,419,401
10106,339,418,401
10107,338,417,401
10109,336,417,401
10110,336,415,401
10113,337,415,401
10115,337,414,401
10116,338,415,401
10118,339,414,401
10119,342,414,401
10121,342,414,401
10122,343,412,401
10124,344,412,400
10126,345,412,401
10127,346,411,401
10129,348,410,401
10130,348,408,401
10132,350,407,400
10134,351,406,400
10135,353,406,400
10137,355,405,399
10138,357,405,400
10140,360,405,401
10141,363,405,400
10143,365,404,400
10145,367,403,400
10146,368,402,400
10148,369,401,400
10149,371,400,400
10151,373,399,399
10152,375,397,400
10155,377,397,400
10157,379,396,399
10158,382,396,400
10160,385,396,399
10161,388,396,399
10163,391,396,399
10164,393,395,399
10166,395,395,399
10168,396,394,399
10169,398,393,399
10171,399,391,399
10172,400,391,398
10174,402,390,399
10176,404,390,400
10177,406,390,399
10179,409,390,399
10180,412,391,398
10182,413,391,398
10183,415,390,399
10185,416,390,398
10187,417,389,398
10188,416,388,398
10190,417,387,398
10191,418,386,398
10193,418,387,398
10194,419,386,398
10196,420,387,398
10199,421,387,398
10200,422,389,398
10202,422,388,398
10203,423,388,398
10205,423,388,397
10206,423,388,397
10208,422,387,398
10210,421,386,397
10211,420,386,397
10213,420,387,397
10214,419,387,397
10216,418,386,397
10218,418,388,397
10219,419,388,397
10221,420,389,397
10222,418,389,397
10224,418,390,397
10225,417,389,397
10227,416,389,397
10229,414,388,397
10230,413,388,397
10232,413,388,397
10233,412,389,397
10235,411,388,397
10236,411,389,396
10238,412,391,396
10241,412,392,397
10242,412,391,396
10244,412,392,396
10245,412,393,396
10247,412,393,397
10248,411,392,396
10250,410,392,396
10252,410,392,397
10253,410,393,396
10255,410,393,396
10256,410,393,396
10258,412,396,396
10260,412,397,396
10261,413,397,396
10263,414,399,395
10264,415,399,396
10266,415,400,396
10267,415,399,396
10269,415,399,395
10271,415,400,395
10272,416,401,396
10274,416,401,395
10275,417,403,395
10277,419,405,396
10278,421,406,395
10280,423,408,396
10283,424,409,395
10284,426,410,395
10286,426,411,395
10287,427,412,395
10289,427,412,395
10290,427,413,395
10292,428,413,395
10294,429,413,395
10295,430,415,395
10297,432,416,395
10298,434,419,395
10300,436,421,395
10302,438,422,395
10303,439,423,395
10305,440,424,395
10306,442,425,395
10308,443,424,395
10309,444,426,394
10311,444,427,394
10313,447,428,395
10314,447,429,394
10316,449,431,395
10317,451,432,394
10319,453,435,394
10320,455,436,394
10322,456,439,394
10324,458,440,394
10326,459,441,394
10328,460,441,394
10329,461,441,394
10331,461,442,394
10332,462,443,394
10334,463,445,394
10336,464,446,394
10337,465,448,394
10339,467,450,394
10340,469,451,394
10342,471,454,394
10344,473,455,394
10345,473,456,394
10347,473,458,394
10348,473,459,394
10350,474,460,394
10351,474,461,394
10353,474,462,394
10355,474,463,394
10356,474,464,394
10358,475,467,394
10359,477,469,394
10361,477,470,394
10362,476,472,394
10364,477,473,393
10366,476,474,394
10368,475,474,394
10370,473,474,394
10371,472,474,394
10373,471,476,394
10374,471,477,394
10376,471,479,394
10378,470,480,393
10379,470,482,394
10381,470,484,393
10382,469,485,394
10384,468,485,393
10386,467,487,393
10387,465,487,393
10389,463,487,393
10390,462,488,393
10392,461,488,393
10393,460,489,393
10395,458,490,394
10397,458,491,394
10398,457,493,393
10400,458,497,394
10401,458,498,393
10403,457,499,394
10404,457,500,393
10406,456,501,393
10408,456,502,393
10409,455,502,393
10412,455,504,393
10413,455,508,394
10415,455,508,393
10417,456,510,393
10418,458,511,393
10420,459,514,393
10421,460,517,395
10423,461,518,393
10424,461,520,394
10426,463,522,393
10428,463,523,394
10429,463,524,393
10431,465,525,393
10432,465,526,393
10434,467,528,393
10435,468,530,393
10437,470,533,393
10439,473,537,393
10440,476,538,394
10442,479,540,393
10443,481,542,393
10445,484,544,394
10446,486,546,394
10448,488,547,394
10450,490,550,394
10451,494,552,394
10454,496,555,394
10455,500,557,394
10457,504,560,393
10459,509,563,394
10460,514,567,394
10462,518,570,394
10463,523,573,394
10465,527,577,394
10466,532,580,395
10468,537,582,394
10470,541,584,394
10471,546,587,394
10473,550,591,395
10474,556,594,395
10476,562,598,395
10477,569,603,395
10479,576,607,395
10481,582,611,395
10482,589,615,395
10484,595,619,395
10485,602,623,396
10487,608,626,395
10488,614,629,395
10490,620,633,395
10492,627,637,395
10493,634,640,396
10496,640,644,396
10497,648,648,396
10499,655,653,396
10501,663,658,396
10502,670,662,396
10504,677,666,396
10505,684,670,396
10507,692,673,396
10508,698,676,396
10510,704,679,396
10512,710,682,397
10513,716,685,396
10515,723,688,396
10516,730,693,397
10518,737,697,397
10519,744,700,397
10521,751,703,397
10523,757,708,397
10524,763,710,397
10526,768,712,398
10527,774,715,397
10529,778,717,397
10530,782,719,398
10532,788,721,398
10534,792,724,398
10535,797,726,398
10537,801,728,398
10539,807,731,398
10541,811,734,398
10543,815,736,398
10544,819,738,399
10546,822,739,398
10547,825,740,399
10549,827,741,399
10550,830,742,399
10552,831,742,399
10554,833,743,399
10555,835,744,399
10557,837,745,400
10558,840,746,400
10560,843,748,399
10561,845,748,400
10563,846,749,399
10565,847,749,401
10566,847,748,400
10568,847,748,400
10569,847,746,400
10571,848,745,400
10572,846,745,400
10574,846,745,400
10576,846,744,401
10577,847,744,401
10579,846,744,402
10580,847,745,401
10583,845,743,401
10585,844,742,401
10586,843,740,401
10588,841,738,402
10589,838,736,401
10591,835,734,401
10592,834,732,402
10594,831,731,402
10596,829,729,402
10597,827,728,402
10599,825,728,402
10600,823,725,402
10602,821,724,402
10603,818,722,402
10605,815,719,404
10607,811,718,403
10608,808,714,403
10610,803,711,403
10611,799,709,402
10613,794,707,403
10614,791,704,403
10616,787,702,403
10618,784,700,405
10619,781,699,404
10621,778,697,403
10622,774,694,403
10625,770,692,404
10627,765,690,404
10628,761,687,403
10630,756,684,404
10631,752,681,405
10633,747,678,406
10634,743,676,404
10636,739,673,404
10638,735,672,405
10639,732,670,405
10641,729,669,405
10642,725,667,405
10644,721,664,405
10645,717,662,406
10647,712,660,405
10649,708,657,405
10650,702,653,405
10652,697,651,405
10653,693,648,405
10655,689,646,406
10656,685,645,406
10658,681,643,406
10660,679,642,406
10661,675,639,406
10663,671,638,406
10664,667,635,406
10667,662,634,405
10669,657,630,407
10670,652,627,407
10672,648,625,407
10673,644,623,407
10675,640,620,407
10676,636,618,407
10678,632,617,408
10680,629,617,407
10681,625,614,409
10683,622,612,408
10684,618,610,408
10686,613,608,408
10687,609,606,408
10689,604,603,408
10691,600,600,408
10692,595,598,408
10694,591,596,408
10695,587,594,410
10697,584,594,409
10699,581,592,409
10700,578,591,409
10702,574,589,409
10703,570,586,409
10705,565,585,408
10706,562,582,409
10708,557,580,409
10711,553,577,410
10712,549,576,409
10714,545,574,409
10715,542,572,409
10717,538,571,410
10718,536,569,409
10720,533,567,409
10722,529,567,410
10723,526,566,411
10725,523,565,410
10726,520,563,410
10728,517,561,410
10729,512,559,410
10731,509,557,410
10733,506,555,410
10734,504,555,412
10736,501,555,411
10737,500,554,411
10739,498,554,411
10741,497,553,411
10742,495,553,411
10744,494,552,411
10745,492,549,411
10747,491,550,412
10748,488,549,412
10750,487,548,411
10753,485,547,411
10754,484,546,411
10756,483,546,412
10757,484,546,412
10759,484,546,413
10760,484,547,412
10762,484,547,412
10764,484,547,412
10765,485,547,412
10767,484,546,412
10768,483,545,412
10770,482,544,412
10771,482,543,412
10773,482,543,412
10775,483,544,412
10776,484,544,412
10778,485,544,412
10779,486,544,413
10781,487,545,412
10783,489,545,413
10784,489,544,413
10786,490,544,413
10787,490,544,413
10789,491,544,413
10790,490,542,413
10792,492,543,413
